 [File Information]      		 [Data Line]	36
Measured Date	2024/05/21 113342
ID		Version	11.0
Name	tristan_13	[HeaderType]	11.0/11.0
Comment	
[Measurement Info.]
Holder Location	       0
Block Design	Off     
Pre.Rest Time	       0
Task Time	       0
Pos.Rest Time	       0
Loop	       0
Averaging	       1
Total Points	     826
[.INF File]
Filename	Cognitive1.INF
[Condition-1]
HV Switching	OFF
 R1 ,R2 ,R3 ,R4 ,R5 ,R6 ,R7 ,R8 
 120.00, 70.00,120.00,100.00, 90.00, 70.00,120.00,120.00
 Gain(X1,X4,X16,X64)
 R1 ,R2 ,R3 ,R4 ,R5 ,R6 ,R7 ,R8 
 1,1,1,1,1,1,1,1
[Analysis Condition]
Smoothed Type	None            
Smoothed Points	       0
Smoothed Loop	       0
Baseline Method	None            
Baseline location	
[Text Info.]
Output Mode	Continious      	Task No.		Data Type	Hb      
Time Range	    0.00	   61.88	Averaing	1
(1,3)(5,3)(5,7)(2,7)(2,4)(6,4)(6,8)(1,1)(3,3)(5,5)(7,7)(2,2)(4,4)(6,6)(8,8)(3,1)(3,5)(7,5)(7,2)(4,2)(4,6)(8,6)
         	     	     	     	    ch- 1	    ch- 1	    ch- 1	    ch- 2	    ch- 2	    ch- 2	    ch- 3	    ch- 3	    ch- 3	    ch- 4	    ch- 4	    ch- 4	    ch- 5	    ch- 5	    ch- 5	    ch- 6	    ch- 6	    ch- 6	    ch- 7	    ch- 7	    ch- 7	    ch- 8	    ch- 8	    ch- 8	    ch- 9	    ch- 9	    ch- 9	    ch-10	    ch-10	    ch-10	    ch-11	    ch-11	    ch-11	    ch-12	    ch-12	    ch-12	    ch-13	    ch-13	    ch-13	    ch-14	    ch-14	    ch-14	    ch-15	    ch-15	    ch-15	    ch-16	    ch-16	    ch-16	    ch-17	    ch-17	    ch-17	    ch-18	    ch-18	    ch-18	    ch-19	    ch-19	    ch-19	    ch-20	    ch-20	    ch-20	    ch-21	    ch-21	    ch-21	    ch-22	    ch-22	    ch-22
Time(sec)	Task	Mark	Count	    oxyHb   	  deoxyHb	  totalHb	    oxyHb   	  deoxyHb	  totalHb	    oxyHb   	  deoxyHb	  totalHb	    oxyHb   	  deoxyHb	  totalHb	    oxyHb   	  deoxyHb	  totalHb	    oxyHb   	  deoxyHb	  totalHb	    oxyHb   	  deoxyHb	  totalHb	    oxyHb   	  deoxyHb	  totalHb	    oxyHb   	  deoxyHb	  totalHb	    oxyHb   	  deoxyHb	  totalHb	    oxyHb   	  deoxyHb	  totalHb	    oxyHb   	  deoxyHb	  totalHb	    oxyHb   	  deoxyHb	  totalHb	    oxyHb   	  deoxyHb	  totalHb	    oxyHb   	  deoxyHb	  totalHb	    oxyHb   	  deoxyHb	  totalHb	    oxyHb   	  deoxyHb	  totalHb	    oxyHb   	  deoxyHb	  totalHb	    oxyHb   	  deoxyHb	  totalHb	    oxyHb   	  deoxyHb	  totalHb	    oxyHb   	  deoxyHb	  totalHb	    oxyHb   	  deoxyHb	  totalHb
     0.000	0	0Z	    0	    0.000000	    0.000000	    0.000000	    0.000000	    0.000000	    0.000000	    0.000000	    0.000000	    0.000000	    0.000000	    0.000000	    0.000000	    0.000000	    0.000000	    0.000000	    0.000000	    0.000000	    0.000000	    0.000000	    0.000000	    0.000000	    0.000000	    0.000000	    0.000000	    0.000000	    0.000000	    0.000000	    0.000000	    0.000000	    0.000000	    0.000000	    0.000000	    0.000000	    0.000000	    0.000000	    0.000000	    0.000000	    0.000000	    0.000000	    0.000000	    0.000000	    0.000000	    0.000000	    0.000000	    0.000000	    0.000000	    0.000000	    0.000000	    0.000000	    0.000000	    0.000000	    0.000000	    0.000000	    0.000000	    0.000000	    0.000000	    0.000000	    0.000000	    0.000000	    0.000000	    0.000000	    0.000000	    0.000000	    0.000000	    0.000000	    0.000000
     0.075	0	0	    0	   -0.001776	    0.007490	    0.005714	    0.006030	    0.004329	    0.010359	    0.001885	    0.000355	    0.002240	   -0.000858	   -0.000536	   -0.001393	   -0.001202	   -0.000807	   -0.002009	   -0.001922	   -0.000196	   -0.002118	   -0.004103	    0.001448	   -0.002656	   -0.002034	   -0.022316	   -0.024350	    0.006421	   -0.002877	    0.003545	   -0.002652	   -0.000524	   -0.003176	   -0.000794	   -0.000181	   -0.000975	    0.000043	   -0.002678	   -0.002635	   -0.000536	   -0.002526	   -0.003062	   -0.003853	    0.002239	   -0.001614	   -0.003313	   -0.000106	   -0.003419	    0.000093	   -0.003683	   -0.003590	    0.006408	    0.003442	    0.009851	   -0.000448	    0.000345	   -0.000103	   -0.002000	    0.000384	   -0.001616	   -0.000933	   -0.001219	   -0.002151	    0.000180	   -0.002518	   -0.002338	   -0.000109	   -0.002370	   -0.002479
     0.150	0	0	    0	   -0.003633	    0.011041	    0.007408	    0.007328	    0.008856	    0.016184	    0.001597	    0.001927	    0.003525	   -0.002724	   -0.000353	   -0.003077	   -0.003447	   -0.001019	   -0.004466	   -0.004273	   -0.000517	   -0.004790	   -0.006125	   -0.000809	   -0.006934	   -0.002291	   -0.025948	   -0.028239	    0.008012	    0.003268	    0.011281	   -0.003481	   -0.001894	   -0.005376	   -0.001536	   -0.000424	   -0.001960	   -0.003582	   -0.002032	   -0.005614	   -0.004736	   -0.001023	   -0.005759	   -0.009672	    0.003258	   -0.006415	   -0.004111	   -0.002512	   -0.006623	   -0.004165	   -0.001610	   -0.005775	    0.003648	    0.008238	    0.011886	   -0.002492	    0.000754	   -0.001739	   -0.005293	    0.000005	   -0.005287	   -0.005827	   -0.000264	   -0.006091	   -0.003295	   -0.001145	   -0.004440	   -0.003374	   -0.003459	   -0.006833
     0.225	0	0	    0	   -0.006556	    0.012613	    0.006057	    0.005886	    0.010563	    0.016449	    0.000177	    0.003297	    0.003474	   -0.004468	    0.000036	   -0.004432	   -0.005637	   -0.001014	   -0.006651	   -0.006874	   -0.000970	   -0.007844	   -0.009398	   -0.002811	   -0.012209	   -0.003906	   -0.024999	   -0.028906	    0.007865	    0.004617	    0.012482	   -0.005165	   -0.001171	   -0.006336	   -0.002417	   -0.000835	   -0.003251	   -0.005643	   -0.002541	   -0.008184	   -0.006259	   -0.002790	   -0.009049	   -0.009849	    0.000274	   -0.009574	   -0.006366	   -0.002822	   -0.009188	   -0.006559	   -0.003324	   -0.009883	    0.003938	    0.005531	    0.009469	   -0.004393	    0.000151	   -0.004242	   -0.007765	   -0.001209	   -0.008974	   -0.007228	   -0.003013	   -0.010241	   -0.006631	   -0.001065	   -0.007696	   -0.004109	   -0.004339	   -0.008448
     0.300	0	0	    0	   -0.007557	    0.010660	    0.003103	    0.005222	    0.010441	    0.015663	   -0.001285	    0.002913	    0.001628	   -0.006063	   -0.000322	   -0.006384	   -0.007393	   -0.001205	   -0.008599	   -0.009327	   -0.000889	   -0.010216	   -0.015152	   -0.000876	   -0.016028	   -0.005986	   -0.022661	   -0.028647	    0.005345	    0.005601	    0.010945	   -0.006289	   -0.002022	   -0.008312	   -0.003886	   -0.001194	   -0.005080	   -0.007056	   -0.002984	   -0.010040	   -0.009440	   -0.002124	   -0.011564	   -0.016073	    0.003226	   -0.012848	   -0.009118	   -0.001926	   -0.011044	   -0.008158	   -0.004332	   -0.012490	   -0.000192	    0.007188	    0.006997	   -0.007432	    0.000079	   -0.007353	   -0.010168	   -0.001806	   -0.011974	   -0.010744	   -0.002061	   -0.012804	   -0.009450	   -0.001389	   -0.010839	   -0.004060	   -0.007500	   -0.011560
     0.375	0	0	    0	   -0.006617	    0.008377	    0.001761	    0.004134	    0.009574	    0.013708	   -0.002533	    0.002126	   -0.000408	   -0.004709	   -0.001789	   -0.006497	   -0.006027	   -0.002983	   -0.009010	   -0.012060	   -0.001811	   -0.013871	   -0.014760	   -0.004797	   -0.019556	   -0.003122	   -0.025694	   -0.028816	    0.001277	    0.004637	    0.005915	   -0.007207	   -0.002807	   -0.010014	   -0.005588	   -0.001280	   -0.006868	   -0.005004	   -0.005692	   -0.010696	   -0.012780	   -0.002569	   -0.015349	   -0.014784	   -0.003811	   -0.018595	   -0.010136	   -0.004038	   -0.014174	   -0.009983	   -0.005243	   -0.015226	   -0.001142	    0.005652	    0.004510	   -0.008383	   -0.001218	   -0.009601	   -0.012263	   -0.002918	   -0.015182	   -0.014074	   -0.002341	   -0.016414	   -0.012659	   -0.001886	   -0.014545	   -0.008615	   -0.005949	   -0.014564
     0.450	0	0	    0	   -0.002539	    0.009496	    0.006957	    0.011162	    0.007998	    0.019160	    0.002057	    0.001065	    0.003122	    0.001888	   -0.001400	    0.000488	    0.001680	   -0.001990	   -0.000310	   -0.001754	   -0.001339	   -0.003093	   -0.000828	    0.000240	   -0.000588	   -0.002229	   -0.024435	   -0.026664	    0.005149	    0.003349	    0.008497	    0.000719	   -0.003007	   -0.002288	   -0.000006	   -0.003953	   -0.003959	    0.006419	   -0.004502	    0.001917	   -0.002615	   -0.005442	   -0.008057	   -0.000102	    0.006053	    0.005951	   -0.000564	   -0.015205	   -0.015768	   -0.007579	   -0.005605	   -0.013184	    0.005133	    0.004800	    0.009933	    0.002993	   -0.002446	    0.000547	   -0.000436	   -0.004055	   -0.004491	   -0.005197	   -0.002396	   -0.007594	   -0.003436	    0.001052	   -0.002385	   -0.002840	   -0.014430	   -0.017270
     0.525	0	0	    0	   -0.001495	    0.007900	    0.006405	    0.013443	    0.009466	    0.022909	    0.005450	    0.001704	    0.007154	    0.004676	   -0.000592	    0.004083	    0.003096	   -0.001236	    0.001860	    0.000388	    0.000147	    0.000535	   -0.000940	    0.001435	    0.000495	   -0.001138	   -0.023608	   -0.024746	    0.007235	    0.004030	    0.011264	    0.003431	   -0.001493	    0.001938	    0.002652	   -0.000765	    0.001887	    0.007360	   -0.003682	    0.003678	    0.003591	   -0.002641	    0.000950	    0.000395	    0.001849	    0.002244	   -0.007006	   -0.001155	   -0.008160	   -0.006692	   -0.004431	   -0.011122	    0.008649	    0.007447	    0.016096	    0.007157	    0.001697	    0.008855	    0.004061	   -0.000358	    0.003703	    0.002634	   -0.002293	    0.000340	    0.004492	   -0.001099	    0.003393	   -0.002308	   -0.005175	   -0.007483
     0.600	0	0	    0	   -0.002392	    0.008376	    0.005984	    0.015310	    0.008508	    0.023818	    0.007930	    0.001555	    0.009485	    0.005161	    0.000122	    0.005283	    0.003798	   -0.000851	    0.002947	    0.002742	    0.000352	    0.003094	    0.000852	   -0.001836	   -0.000985	   -0.001560	   -0.023000	   -0.024560	    0.007029	    0.003407	    0.010435	    0.006212	   -0.002191	    0.004022	    0.004111	    0.000092	    0.004202	    0.007137	   -0.002457	    0.004680	    0.005003	   -0.000307	    0.004695	   -0.000637	    0.002795	    0.002158	   -0.004952	   -0.002896	   -0.007848	   -0.007033	   -0.004357	   -0.011390	    0.009639	    0.008763	    0.018403	    0.007485	    0.002981	    0.010466	    0.005192	    0.000336	    0.005528	    0.003864	   -0.000029	    0.003835	    0.005556	    0.000688	    0.006244	   -0.003518	   -0.005118	   -0.008636
     0.675	0	0	    0	   -0.002768	    0.007375	    0.004608	    0.015301	    0.008765	    0.024066	    0.007836	    0.002076	    0.009912	    0.005555	   -0.000328	    0.005226	    0.003975	   -0.000812	    0.003163	    0.001126	    0.001601	    0.002727	   -0.004746	    0.001799	   -0.002947	   -0.001651	   -0.021929	   -0.023581	    0.005966	    0.002479	    0.008446	    0.005861	   -0.002412	    0.003449	    0.004496	   -0.000173	    0.004323	    0.007650	   -0.003346	    0.004304	    0.004885	   -0.001264	    0.003621	   -0.001120	    0.003898	    0.002779	   -0.005749	   -0.003498	   -0.009248	   -0.008469	   -0.004307	   -0.012776	    0.008985	    0.007409	    0.016394	    0.007645	    0.001900	    0.009546	    0.004485	    0.000089	    0.004573	    0.005135	   -0.003127	    0.002008	    0.003233	    0.002419	    0.005651	   -0.002878	   -0.007006	   -0.009884
     0.750	0	0	    0	   -0.004944	    0.007670	    0.002727	    0.014852	    0.008951	    0.023803	    0.008900	    0.001402	    0.010302	    0.005405	    0.000384	    0.005788	    0.002806	    0.000428	    0.003235	    0.002039	    0.001478	    0.003518	   -0.000439	   -0.002286	   -0.002725	   -0.002271	   -0.021415	   -0.023686	    0.005747	    0.002207	    0.007955	    0.006133	   -0.001789	    0.004344	    0.005715	   -0.000608	    0.005107	    0.006561	   -0.002073	    0.004488	    0.005107	   -0.000898	    0.004209	   -0.002493	    0.004071	    0.001578	   -0.005954	   -0.003761	   -0.009716	   -0.008811	   -0.004760	   -0.013572	    0.009185	    0.008012	    0.017197	    0.007753	    0.001826	    0.009579	    0.005064	   -0.000201	    0.004863	    0.004997	   -0.001689	    0.003308	    0.003187	    0.001912	    0.005100	   -0.002005	   -0.007317	   -0.009323
     0.825	0	0	    0	   -0.006369	    0.006819	    0.000450	    0.014363	    0.008117	    0.022480	    0.007531	    0.001821	    0.009353	    0.003591	    0.000034	    0.003626	    0.001761	   -0.000538	    0.001223	    0.001330	    0.000856	    0.002186	   -0.006623	   -0.001389	   -0.008012	   -0.003486	   -0.022312	   -0.025798	    0.003555	    0.000788	    0.004343	    0.005916	   -0.002434	    0.003482	    0.003944	    0.000120	    0.004064	    0.005692	   -0.003375	    0.002317	    0.003733	   -0.000512	    0.003221	   -0.004708	    0.004404	   -0.000304	   -0.010215	   -0.002894	   -0.013109	   -0.009301	   -0.004076	   -0.013377	    0.006023	    0.008756	    0.014779	    0.004922	    0.002093	    0.007016	    0.002342	    0.000384	    0.002725	    0.003497	   -0.001770	    0.001726	    0.002273	    0.000828	    0.003100	   -0.006208	   -0.005596	   -0.011804
     0.900	0	0	    0	   -0.008752	    0.006488	   -0.002264	    0.013316	    0.007203	    0.020519	    0.005753	    0.002204	    0.007957	    0.002292	   -0.000284	    0.002008	    0.000088	   -0.001270	   -0.001182	    0.000014	   -0.000786	   -0.000772	   -0.011022	   -0.000258	   -0.011280	   -0.004864	   -0.021021	   -0.025886	    0.001791	    0.000615	    0.002406	    0.004105	   -0.002716	    0.001389	    0.003039	   -0.000275	    0.002763	    0.002828	   -0.003103	   -0.000275	    0.000534	   -0.000346	    0.000188	   -0.006708	    0.002821	   -0.003887	   -0.010692	   -0.004444	   -0.015136	   -0.010574	   -0.003690	   -0.014264	    0.005568	    0.007536	    0.013104	    0.002861	    0.001156	    0.004017	    0.000672	   -0.001054	   -0.000382	    0.000471	   -0.002021	   -0.001550	   -0.001721	    0.002156	    0.000436	   -0.007269	   -0.006718	   -0.013987
     0.975	0	0	    0	   -0.009832	    0.005601	   -0.004231	    0.012368	    0.006279	    0.018648	    0.005286	    0.000905	    0.006190	    0.000254	   -0.000540	   -0.000287	   -0.001578	   -0.001576	   -0.003154	   -0.001286	   -0.001406	   -0.002692	   -0.009031	   -0.006733	   -0.015763	   -0.007035	   -0.020815	   -0.027851	    0.000756	    0.000297	    0.001054	    0.003497	   -0.003170	    0.000327	    0.001955	   -0.000763	    0.001192	    0.001202	   -0.004202	   -0.003000	   -0.000802	   -0.001551	   -0.002353	   -0.010495	    0.003039	   -0.007457	   -0.011895	   -0.005808	   -0.017703	   -0.012582	   -0.003894	   -0.016476	    0.003273	    0.008871	    0.012144	    0.000519	    0.000536	    0.001055	   -0.002256	   -0.001197	   -0.003453	   -0.001424	   -0.003451	   -0.004875	   -0.004457	    0.002114	   -0.002343	   -0.009187	   -0.007911	   -0.017098
     1.050	0	0	    0	   -0.011694	    0.005498	   -0.006196	    0.011195	    0.005439	    0.016634	    0.003340	    0.000663	    0.004003	   -0.001891	   -0.000362	   -0.002253	   -0.003750	   -0.001738	   -0.005487	   -0.005112	   -0.000302	   -0.005414	   -0.011934	   -0.006858	   -0.018792	   -0.007872	   -0.021000	   -0.028872	   -0.000970	    0.000115	   -0.000855	    0.002214	   -0.003826	   -0.001612	    0.000860	   -0.001188	   -0.000328	   -0.001891	   -0.003366	   -0.005258	   -0.002899	   -0.002639	   -0.005538	   -0.011883	   -0.000182	   -0.012065	   -0.011955	   -0.006969	   -0.018924	   -0.013442	   -0.004301	   -0.017742	    0.004088	    0.006041	    0.010129	   -0.001779	    0.000114	   -0.001666	   -0.004502	   -0.002154	   -0.006656	   -0.004915	   -0.003315	   -0.008229	   -0.006403	    0.001800	   -0.004602	   -0.008989	   -0.009786	   -0.018775
     1.125	0	0	    0	   -0.013179	    0.004987	   -0.008192	    0.009420	    0.005536	    0.014956	    0.001292	    0.000444	    0.001737	   -0.002741	   -0.001660	   -0.004401	   -0.006070	   -0.002167	   -0.008237	   -0.006927	   -0.001482	   -0.008410	   -0.015727	   -0.007047	   -0.022774	   -0.009774	   -0.020357	   -0.030131	   -0.002540	   -0.000276	   -0.002816	   -0.000771	   -0.003493	   -0.004263	   -0.001558	   -0.000827	   -0.002385	   -0.003336	   -0.004993	   -0.008329	   -0.006031	   -0.003061	   -0.009092	   -0.017288	    0.003900	   -0.013388	   -0.014643	   -0.008120	   -0.022762	   -0.014662	   -0.004604	   -0.019266	   -0.000239	    0.006869	    0.006631	   -0.004785	   -0.000493	   -0.005278	   -0.006953	   -0.003278	   -0.010231	   -0.007180	   -0.004388	   -0.011568	   -0.007892	    0.000410	   -0.007482	   -0.011773	   -0.010308	   -0.022081
     1.200	0	0	    0	   -0.015139	    0.005819	   -0.009320	    0.006548	    0.005642	    0.012190	   -0.000516	    0.000041	   -0.000474	   -0.005203	   -0.001459	   -0.006662	   -0.008717	   -0.002093	   -0.010811	   -0.010077	   -0.001359	   -0.011436	   -0.021706	   -0.003087	   -0.024793	   -0.011084	   -0.020764	   -0.031848	   -0.004218	    0.000336	   -0.003883	   -0.002077	   -0.003724	   -0.005801	   -0.002960	   -0.001331	   -0.004292	   -0.006132	   -0.004325	   -0.010457	   -0.008807	   -0.003109	   -0.011916	   -0.021995	    0.003572	   -0.018422	   -0.015598	   -0.008297	   -0.023895	   -0.015965	   -0.004489	   -0.020454	   -0.001663	    0.006891	    0.005228	   -0.007432	   -0.000694	   -0.008126	   -0.009295	   -0.004091	   -0.013385	   -0.008883	   -0.005475	   -0.014358	   -0.011629	    0.001149	   -0.010479	   -0.013164	   -0.009980	   -0.023144
     1.275	0	0	    0	   -0.013462	    0.005080	   -0.008382	    0.006512	    0.004101	    0.010612	   -0.002072	   -0.000583	   -0.002654	   -0.005178	   -0.002991	   -0.008169	   -0.007030	   -0.004256	   -0.011286	   -0.011832	   -0.003130	   -0.014962	   -0.018974	   -0.010795	   -0.029769	   -0.010224	   -0.020654	   -0.030879	   -0.005295	   -0.000695	   -0.005990	   -0.003328	   -0.005055	   -0.008383	   -0.004895	   -0.001663	   -0.006558	   -0.003170	   -0.007463	   -0.010633	   -0.012222	   -0.003968	   -0.016190	   -0.017396	   -0.003493	   -0.020890	   -0.018250	   -0.008857	   -0.027107	   -0.016766	   -0.004333	   -0.021099	   -0.002857	    0.005422	    0.002566	   -0.008846	   -0.001978	   -0.010824	   -0.011776	   -0.005065	   -0.016841	   -0.012342	   -0.006485	   -0.018828	   -0.013702	   -0.000923	   -0.014624	   -0.015759	   -0.010834	   -0.026593
     1.350	0	0	    0	   -0.008635	    0.005911	   -0.002723	    0.012087	    0.002764	    0.014851	    0.002691	   -0.002122	    0.000569	    0.000977	   -0.001528	   -0.000551	   -0.000583	   -0.002109	   -0.002693	   -0.003262	   -0.003828	   -0.007090	   -0.006962	   -0.009261	   -0.016223	   -0.007257	   -0.019893	   -0.027149	   -0.001494	   -0.001169	   -0.002663	    0.004776	   -0.006658	   -0.001882	    0.001039	   -0.002832	   -0.001794	    0.005134	   -0.004895	    0.000239	   -0.003292	   -0.006673	   -0.009965	   -0.009925	    0.001382	   -0.008543	   -0.012822	   -0.009236	   -0.022058	   -0.014422	   -0.004927	   -0.019349	    0.002807	    0.004474	    0.007280	    0.003996	   -0.001735	    0.002261	    0.001384	   -0.005098	   -0.003714	   -0.003828	   -0.007637	   -0.011465	   -0.005723	   -0.001475	   -0.007197	   -0.011065	   -0.010401	   -0.021466
     1.425	0	0	    0	   -0.007837	    0.006894	   -0.000943	    0.015149	    0.004528	    0.019677	    0.005721	   -0.000300	    0.005421	    0.004133	   -0.001225	    0.002907	    0.002614	   -0.001968	    0.000646	   -0.000522	    0.000990	    0.000468	   -0.008421	   -0.001983	   -0.010404	   -0.007196	   -0.019209	   -0.026406	    0.001956	    0.000396	    0.002352	    0.008283	   -0.003862	    0.004421	    0.004009	   -0.001227	    0.002782	    0.008737	   -0.004616	    0.004120	    0.004498	   -0.002654	    0.001844	   -0.007114	    0.005342	   -0.001772	   -0.012897	   -0.008114	   -0.021011	   -0.012837	   -0.003727	   -0.016564	    0.009115	    0.006086	    0.015200	    0.006707	    0.001694	    0.008401	    0.005129	   -0.002012	    0.003117	    0.005812	   -0.005652	    0.000159	    0.002620	    0.000389	    0.003008	   -0.010320	   -0.010091	   -0.020411
     1.500	0	0	    0	   -0.008057	    0.007602	   -0.000455	    0.017419	    0.003884	    0.021303	    0.008039	   -0.000298	    0.007741	    0.004662	   -0.001020	    0.003641	    0.001943	   -0.001166	    0.000777	    0.002742	    0.000352	    0.003094	   -0.003503	   -0.005586	   -0.009089	   -0.007759	   -0.019103	   -0.026862	    0.002148	    0.001064	    0.003213	    0.009848	   -0.003736	    0.006112	    0.004983	   -0.000182	    0.004801	    0.007773	   -0.003606	    0.004167	    0.006225	   -0.001331	    0.004894	   -0.002513	    0.001901	   -0.000612	   -0.014575	   -0.006601	   -0.021176	   -0.013220	   -0.003529	   -0.016749	    0.008226	    0.008449	    0.016675	    0.007768	    0.002262	    0.010030	    0.005734	   -0.001025	    0.004709	    0.005735	   -0.002172	    0.003564	    0.001762	    0.005416	    0.007179	   -0.012842	   -0.007330	   -0.020172
     1.575	0	0	    0	   -0.006309	    0.006423	    0.000114	    0.017343	    0.003291	    0.020633	    0.008732	   -0.001151	    0.007581	    0.005490	   -0.001670	    0.003820	    0.002946	   -0.001534	    0.001413	    0.002908	   -0.000256	    0.002652	   -0.007537	   -0.005099	   -0.012635	   -0.007545	   -0.019827	   -0.027373	    0.002505	    0.000592	    0.003097	    0.009667	   -0.004234	    0.005434	    0.005280	   -0.000203	    0.005077	    0.008723	   -0.004479	    0.004244	    0.005798	   -0.001367	    0.004431	   -0.004151	    0.002183	   -0.001968	   -0.013522	   -0.007696	   -0.021218	   -0.014150	   -0.003403	   -0.017553	    0.007260	    0.008414	    0.015674	    0.007710	    0.001528	    0.009238	    0.005062	   -0.001518	    0.003544	    0.005989	   -0.004085	    0.001904	    0.001939	    0.003528	    0.005468	   -0.010904	   -0.009020	   -0.019924
     1.650	0	0	    0	   -0.006958	    0.007779	    0.000821	    0.017912	    0.003050	    0.020962	    0.008434	   -0.000221	    0.008213	    0.005057	   -0.001174	    0.003883	    0.002943	   -0.002058	    0.000885	    0.002064	    0.000864	    0.002929	   -0.011251	   -0.000260	   -0.011511	   -0.009488	   -0.018466	   -0.027954	    0.003068	    0.000609	    0.003677	    0.009638	   -0.003041	    0.006597	    0.005850	   -0.000376	    0.005474	    0.007379	   -0.002764	    0.004615	    0.005612	   -0.000917	    0.004694	   -0.009406	    0.008429	   -0.000977	   -0.013753	   -0.007660	   -0.021414	   -0.014384	   -0.003319	   -0.017702	    0.007679	    0.009786	    0.017465	    0.008218	    0.001474	    0.009692	    0.005607	   -0.001823	    0.003785	    0.004523	   -0.001408	    0.003115	    0.003420	    0.002804	    0.006225	   -0.010297	   -0.009948	   -0.020245
     1.725	0	0	    0	   -0.007022	    0.007376	    0.000355	    0.017023	    0.002932	    0.019955	    0.008011	   -0.000589	    0.007422	    0.003751	   -0.001399	    0.002351	    0.001772	   -0.002465	   -0.000693	    0.001189	    0.000430	    0.001619	   -0.010933	   -0.004347	   -0.015280	   -0.010905	   -0.018778	   -0.029684	    0.001886	    0.001493	    0.003380	    0.009296	   -0.004354	    0.004942	    0.004876	   -0.000227	    0.004649	    0.007896	   -0.005343	    0.002553	    0.004758	   -0.001567	    0.003191	   -0.008044	    0.003531	   -0.004513	   -0.015078	   -0.008728	   -0.023807	   -0.015330	   -0.003071	   -0.018401	    0.008546	    0.006804	    0.015350	    0.005593	    0.001400	    0.006994	    0.003282	   -0.001772	    0.001510	    0.005146	   -0.003591	    0.001554	    0.002204	    0.002447	    0.004651	   -0.014104	   -0.008808	   -0.022913
     1.800	0	0	    0	   -0.008579	    0.008696	    0.000117	    0.016266	    0.001986	    0.018251	    0.006668	   -0.000853	    0.005814	    0.001855	   -0.001604	    0.000251	   -0.000886	   -0.001953	   -0.002839	   -0.001460	    0.000701	   -0.000759	   -0.017600	   -0.003249	   -0.020849	   -0.012942	   -0.017964	   -0.030907	   -0.000127	    0.002377	    0.002250	    0.006653	   -0.003760	    0.002893	    0.003657	   -0.000578	    0.003080	    0.005464	   -0.004972	    0.000493	    0.001423	   -0.000942	    0.000482	   -0.011246	    0.004236	   -0.007010	   -0.017159	   -0.008877	   -0.026035	   -0.015930	   -0.002881	   -0.018811	    0.005396	    0.007546	    0.012941	    0.003183	    0.000644	    0.003827	    0.001188	   -0.002479	   -0.001290	    0.000616	   -0.001716	   -0.001100	   -0.001941	    0.003523	    0.001581	   -0.015541	   -0.008655	   -0.024196
     1.875	0	0	    0	   -0.009972	    0.008846	   -0.001126	    0.014164	    0.001656	    0.015821	    0.004844	   -0.001136	    0.003708	    0.000744	   -0.002523	   -0.001779	   -0.003361	   -0.002463	   -0.005823	   -0.003896	   -0.002092	   -0.005988	   -0.016897	   -0.009944	   -0.026842	   -0.013571	   -0.019000	   -0.032571	   -0.001473	    0.001084	   -0.000388	    0.005064	   -0.004739	    0.000325	    0.001671	    0.001444	    0.003115	    0.000493	   -0.004554	   -0.004061	   -0.000628	   -0.003718	   -0.004347	   -0.017239	   -0.004763	   -0.022002	   -0.024902	    0.002280	   -0.022622	   -0.017317	   -0.002712	   -0.020030	    0.003844	    0.005126	    0.008970	    0.000785	    0.002215	    0.003000	   -0.000935	   -0.001667	   -0.002601	   -0.001052	   -0.007774	   -0.008826	   -0.005046	   -0.002125	   -0.007171	   -0.017054	   -0.003298	   -0.020352
     1.950	0	0	    0	   -0.012200	    0.010477	   -0.001723	    0.013110	    0.001979	    0.015089	    0.003517	   -0.000792	    0.002724	   -0.001945	   -0.001798	   -0.003744	   -0.004111	   -0.003065	   -0.007176	   -0.005455	   -0.000880	   -0.006335	   -0.020332	   -0.006500	   -0.026832	   -0.015383	   -0.017598	   -0.032981	   -0.002647	    0.002224	   -0.000423	    0.004599	   -0.005049	   -0.000450	   -0.000076	    0.000134	    0.000059	   -0.000026	   -0.005083	   -0.005109	   -0.003295	   -0.002649	   -0.005945	   -0.013207	   -0.000022	   -0.013229	   -0.021016	   -0.010716	   -0.031732	   -0.018527	   -0.002490	   -0.021017	    0.001100	    0.008483	    0.009583	   -0.001896	    0.000128	   -0.001768	   -0.003798	   -0.003726	   -0.007524	   -0.004373	   -0.002937	   -0.007311	   -0.008365	    0.004370	   -0.003995	   -0.018803	   -0.009921	   -0.028724
     2.025	0	0	    0	   -0.012732	    0.009650	   -0.003081	    0.010956	    0.001988	    0.012944	    0.002525	   -0.001776	    0.000749	   -0.004298	   -0.001664	   -0.005962	   -0.006781	   -0.002843	   -0.009624	   -0.007633	   -0.001024	   -0.008658	   -0.025961	   -0.004779	   -0.030740	   -0.016644	   -0.018052	   -0.034695	   -0.003473	    0.001719	   -0.001754	    0.002973	   -0.005448	   -0.002475	   -0.001758	   -0.000369	   -0.002127	   -0.001629	   -0.006383	   -0.008011	   -0.005347	   -0.003593	   -0.008940	   -0.020633	    0.002706	   -0.017926	   -0.024381	   -0.009550	   -0.033931	   -0.020035	   -0.002451	   -0.022486	   -0.000486	    0.007167	    0.006681	   -0.005014	   -0.000334	   -0.005347	   -0.006934	   -0.004114	   -0.011049	   -0.005434	   -0.005863	   -0.011297	   -0.010543	    0.002871	   -0.007672	   -0.022793	   -0.009724	   -0.032517
     2.100	0	0	    0	   -0.014593	    0.009805	   -0.004789	    0.008459	    0.002190	    0.010649	   -0.000064	   -0.001302	   -0.001367	   -0.006175	   -0.002270	   -0.008444	   -0.008358	   -0.003855	   -0.012213	   -0.010209	   -0.001778	   -0.011987	   -0.029406	   -0.004357	   -0.033762	   -0.017449	   -0.017998	   -0.035447	   -0.004953	    0.001595	   -0.003358	    0.000484	   -0.005468	   -0.004984	   -0.002806	   -0.001220	   -0.004026	   -0.005393	   -0.005981	   -0.011374	   -0.009443	   -0.002791	   -0.012234	   -0.022246	    0.001022	   -0.021224	   -0.024826	   -0.011346	   -0.036171	   -0.021175	   -0.002246	   -0.023420	   -0.003358	    0.007494	    0.004137	   -0.008226	   -0.000301	   -0.008527	   -0.009320	   -0.005132	   -0.014452	   -0.010121	   -0.005418	   -0.015539	   -0.013010	    0.002518	   -0.010492	   -0.024001	   -0.011186	   -0.035188
     2.175	0	0	    0	   -0.016241	    0.010193	   -0.006048	    0.007515	    0.000945	    0.008460	   -0.001702	   -0.001785	   -0.003487	   -0.008806	   -0.002599	   -0.011405	   -0.011150	   -0.003296	   -0.014446	   -0.013870	   -0.001856	   -0.015726	   -0.032335	   -0.005199	   -0.037534	   -0.019558	   -0.017695	   -0.037254	   -0.006209	    0.001740	   -0.004469	   -0.002384	   -0.005146	   -0.007530	   -0.004665	   -0.001625	   -0.006290	   -0.007514	   -0.006422	   -0.013936	   -0.011592	   -0.004283	   -0.015875	   -0.025463	   -0.000870	   -0.026333	   -0.027273	   -0.011659	   -0.038932	   -0.021778	   -0.002793	   -0.024571	   -0.004895	    0.007248	    0.002353	   -0.011083	   -0.001142	   -0.012225	   -0.012121	   -0.004845	   -0.016966	   -0.011539	   -0.006982	   -0.018522	   -0.015195	   -0.000620	   -0.015815	   -0.022366	   -0.014058	   -0.036424
     2.250	0	0	    0	   -0.013144	    0.009260	   -0.003884	    0.006329	    0.000061	    0.006390	   -0.003554	   -0.002252	   -0.005806	   -0.005390	   -0.004685	   -0.010075	   -0.005861	   -0.005685	   -0.011546	   -0.015884	   -0.003860	   -0.019745	   -0.030489	   -0.009793	   -0.040282	   -0.016444	   -0.018007	   -0.034452	   -0.008449	    0.002621	   -0.005828	   -0.003012	   -0.007063	   -0.010075	   -0.005331	   -0.002529	   -0.007860	   -0.001451	   -0.009188	   -0.010639	   -0.015683	   -0.004119	   -0.019802	   -0.024617	   -0.001892	   -0.026509	   -0.026143	   -0.014091	   -0.040234	   -0.024181	   -0.002080	   -0.026261	   -0.008751	    0.007644	   -0.001107	   -0.008240	   -0.004217	   -0.012457	   -0.010253	   -0.008119	   -0.018372	   -0.016603	   -0.005848	   -0.022450	   -0.018924	    0.001037	   -0.017887	   -0.021337	   -0.015906	   -0.037243
     2.325	0	0	    0	   -0.009874	    0.010879	    0.001005	    0.013405	    0.000358	    0.013763	    0.003047	   -0.002977	    0.000070	    0.001178	   -0.003555	   -0.002377	   -0.000368	   -0.002961	   -0.003328	   -0.004915	   -0.002340	   -0.007254	   -0.017533	   -0.004294	   -0.021827	   -0.014859	   -0.015945	   -0.030804	   -0.002119	    0.001944	   -0.000175	    0.006445	   -0.006804	   -0.000360	    0.001394	   -0.002646	   -0.001252	    0.006317	   -0.006065	    0.000252	   -0.001433	   -0.005801	   -0.007235	   -0.011645	    0.002058	   -0.009587	   -0.021979	   -0.012369	   -0.034347	   -0.019233	   -0.002798	   -0.022031	    0.000741	    0.006531	    0.007272	    0.003763	   -0.001007	    0.002756	    0.002922	   -0.004732	   -0.001810	   -0.001135	   -0.008390	   -0.009525	   -0.005552	   -0.000671	   -0.006223	   -0.019248	   -0.012329	   -0.031577
     2.400	0	0	    0	   -0.009132	    0.010913	    0.001782	    0.016404	    0.000621	    0.017025	    0.006067	   -0.002193	    0.003875	    0.002507	   -0.002278	    0.000229	    0.001316	   -0.002280	   -0.000964	   -0.001526	   -0.000291	   -0.001817	   -0.014900	   -0.005334	   -0.020234	   -0.015028	   -0.015247	   -0.030275	   -0.000007	    0.003028	    0.003021	    0.008915	   -0.005184	    0.003731	    0.003411	   -0.001220	    0.002191	    0.007974	   -0.004978	    0.002995	    0.003237	   -0.001431	    0.001806	   -0.009683	    0.003638	   -0.006045	   -0.021914	   -0.011764	   -0.033678	   -0.018981	   -0.001622	   -0.020604	    0.004019	    0.008055	    0.012074	    0.006611	    0.000626	    0.007237	    0.004919	   -0.002337	    0.002583	    0.003759	   -0.003912	   -0.000153	   -0.002185	    0.003709	    0.001523	   -0.016519	   -0.013341	   -0.029860
     2.475	0	0	    0	   -0.009345	    0.010315	    0.000971	    0.016056	    0.001282	    0.017339	    0.006948	   -0.001864	    0.005084	    0.003040	   -0.002324	    0.000716	    0.001887	   -0.002787	   -0.000900	   -0.001542	    0.000794	   -0.000748	   -0.017465	   -0.002969	   -0.020435	   -0.014544	   -0.015674	   -0.030218	    0.000242	    0.003212	    0.003455	    0.008111	   -0.003800	    0.004311	    0.003842	   -0.000212	    0.003630	    0.008942	   -0.006411	    0.002531	    0.004698	   -0.001004	    0.003694	   -0.011221	    0.004399	   -0.006821	   -0.022371	   -0.011475	   -0.033845	   -0.019993	   -0.000917	   -0.020910	    0.003350	    0.009589	    0.012939	    0.006361	    0.001242	    0.007603	    0.005122	   -0.001980	    0.003142	    0.004239	   -0.002484	    0.001755	   -0.000352	    0.003953	    0.003601	   -0.019191	   -0.011420	   -0.030612
     2.550	0	0	    0	   -0.009100	    0.010059	    0.000960	    0.016577	    0.000014	    0.016590	    0.006912	   -0.001534	    0.005377	    0.004325	   -0.002717	    0.001608	    0.002557	   -0.002825	   -0.000268	   -0.000022	   -0.000652	   -0.000673	   -0.014660	   -0.007385	   -0.022045	   -0.014626	   -0.015305	   -0.029931	   -0.000281	    0.003343	    0.003061	    0.009814	   -0.005569	    0.004245	    0.004359	   -0.000451	    0.003908	    0.009812	   -0.005961	    0.003851	    0.002326	    0.000669	    0.002995	   -0.006270	    0.001023	   -0.005247	   -0.024514	   -0.010541	   -0.035055	   -0.021274	   -0.000999	   -0.022273	    0.002702	    0.009353	    0.012055	    0.006387	    0.001067	    0.007454	    0.004831	   -0.001981	    0.002850	    0.003307	   -0.002390	    0.000917	   -0.001031	    0.003969	    0.002938	   -0.020121	   -0.010637	   -0.030757
     2.625	0	0	    0	   -0.011066	    0.011037	   -0.000029	    0.016113	    0.000545	    0.016658	    0.007107	   -0.001593	    0.005513	    0.002082	   -0.001388	    0.000694	    0.001381	   -0.002413	   -0.001032	   -0.001472	    0.000647	   -0.000825	   -0.016639	   -0.005925	   -0.022565	   -0.015767	   -0.014498	   -0.030266	   -0.001391	    0.004245	    0.002855	    0.008727	   -0.004763	    0.003964	    0.004712	   -0.000562	    0.004150	    0.007683	   -0.005312	    0.002371	    0.004169	   -0.001308	    0.002861	   -0.010505	    0.002494	   -0.008011	   -0.021819	   -0.014181	   -0.036000	   -0.021250	   -0.001383	   -0.022633	    0.002674	    0.008273	    0.010947	    0.006567	    0.000427	    0.006994	    0.004690	   -0.002216	    0.002474	    0.002897	   -0.002494	    0.000403	   -0.003133	    0.005206	    0.002073	   -0.018059	   -0.014144	   -0.032203
     2.700	0	0	    0	   -0.012399	    0.011429	   -0.000970	    0.015174	   -0.000144	    0.015031	    0.006158	   -0.001495	    0.004663	    0.000683	   -0.001225	   -0.000542	   -0.000130	   -0.002209	   -0.002339	   -0.002489	    0.000451	   -0.002038	   -0.018763	   -0.006433	   -0.025196	   -0.018034	   -0.012975	   -0.031009	   -0.002373	    0.004479	    0.002106	    0.007926	   -0.004962	    0.002963	    0.003251	    0.000012	    0.003263	    0.004861	   -0.004105	    0.000756	    0.002094	   -0.000486	    0.001608	   -0.014612	    0.002157	   -0.012455	   -0.026682	   -0.010287	   -0.036968	   -0.022515	   -0.001341	   -0.023856	    0.001023	    0.009135	    0.010159	    0.002993	    0.001477	    0.004470	    0.002366	   -0.002135	    0.000231	    0.000698	   -0.001057	   -0.000359	   -0.003438	    0.003700	    0.000263	   -0.021375	   -0.012490	   -0.033865
     2.775	0	0	    0	   -0.012808	    0.010018	   -0.002790	    0.013719	   -0.000544	    0.013176	    0.004965	   -0.002153	    0.002811	    0.000176	   -0.003075	   -0.002898	   -0.002197	   -0.002433	   -0.004630	   -0.005646	    0.001045	   -0.004601	   -0.022083	   -0.006730	   -0.028813	   -0.019068	   -0.014053	   -0.033120	   -0.003660	    0.003903	    0.000243	    0.005688	   -0.005288	    0.000401	    0.001550	   -0.000161	    0.001389	    0.003855	   -0.006542	   -0.002687	   -0.000787	   -0.000574	   -0.001360	   -0.014928	    0.003158	   -0.011770	   -0.028021	   -0.011801	   -0.039822	   -0.023760	   -0.001044	   -0.024805	   -0.001547	    0.009517	    0.007971	    0.000389	    0.000588	    0.000977	   -0.000504	   -0.002530	   -0.003034	   -0.001068	   -0.003457	   -0.004525	   -0.007504	    0.005900	   -0.001604	   -0.023277	   -0.010619	   -0.033896
     2.850	0	0	    0	   -0.014942	    0.010524	   -0.004418	    0.011508	   -0.000515	    0.010993	    0.003734	   -0.002682	    0.001052	   -0.001736	   -0.002956	   -0.004693	   -0.003494	   -0.003571	   -0.007065	   -0.007204	   -0.000784	   -0.007988	   -0.022960	   -0.010223	   -0.033183	   -0.019945	   -0.014090	   -0.034034	   -0.005059	    0.003982	   -0.001078	    0.004996	   -0.006936	   -0.001940	    0.000519	   -0.000849	   -0.000330	    0.001718	   -0.006542	   -0.004825	   -0.002152	   -0.002601	   -0.004753	   -0.016156	   -0.002936	   -0.019092	   -0.027466	   -0.014485	   -0.041951	   -0.024469	   -0.001216	   -0.025685	   -0.000887	    0.005816	    0.004929	   -0.001688	   -0.000543	   -0.002231	   -0.002721	   -0.003638	   -0.006359	   -0.003435	   -0.003915	   -0.007350	   -0.008049	    0.001193	   -0.006856	   -0.025816	   -0.012612	   -0.038429
     2.925	0	0	    0	   -0.016297	    0.009258	   -0.007039	    0.011156	   -0.004906	    0.006250	    0.002329	   -0.005688	   -0.003359	   -0.004041	   -0.003508	   -0.007549	   -0.006133	   -0.003490	   -0.009623	   -0.007509	   -0.009565	   -0.017074	   -0.012782	   -0.042189	   -0.054971	   -0.021911	   -0.013753	   -0.035663	   -0.005942	    0.002921	   -0.003022	    0.002774	   -0.010578	   -0.007803	   -0.001797	   -0.001195	   -0.002992	   -0.000702	   -0.007235	   -0.007937	   -0.006655	   -0.000994	   -0.007649	   -0.021451	   -0.017446	   -0.038897	   -0.028659	   -0.017611	   -0.046270	   -0.026002	   -0.000923	   -0.026925	   -0.004487	    0.008530	    0.004044	   -0.005317	   -0.000951	   -0.006268	   -0.005575	   -0.005308	   -0.010884	   -0.008447	   -0.001121	   -0.009568	   -0.012271	    0.004285	   -0.007986	   -0.025253	   -0.019205	   -0.044458
     3.000	0	0	    0	   -0.019040	    0.010390	   -0.008650	    0.007714	   -0.001262	    0.006452	   -0.001222	   -0.002582	   -0.003804	   -0.005787	   -0.003930	   -0.009717	   -0.008514	   -0.003674	   -0.012188	   -0.012488	   -0.001346	   -0.013834	   -0.034369	   -0.004574	   -0.038942	   -0.022450	   -0.014033	   -0.036484	   -0.008276	    0.003818	   -0.004457	    0.000115	   -0.006862	   -0.006747	   -0.003492	   -0.001349	   -0.004841	   -0.003926	   -0.006782	   -0.010709	   -0.009574	   -0.002063	   -0.011637	   -0.025574	    0.002320	   -0.023254	   -0.034155	   -0.011535	   -0.045690	   -0.027479	   -0.001528	   -0.029006	   -0.007683	    0.008342	    0.000659	   -0.007188	   -0.001470	   -0.008658	   -0.008855	   -0.004577	   -0.013432	   -0.009817	   -0.004283	   -0.014100	   -0.013472	    0.000687	   -0.012785	   -0.028447	   -0.013520	   -0.041967
     3.075	0	0	    0	   -0.020511	    0.010039	   -0.010472	    0.004923	   -0.001007	    0.003916	   -0.002871	   -0.002888	   -0.005760	   -0.007999	   -0.004172	   -0.012171	   -0.010139	   -0.004359	   -0.014498	   -0.015452	   -0.001522	   -0.016974	   -0.034548	   -0.008281	   -0.042829	   -0.023876	   -0.013768	   -0.037644	   -0.010554	    0.003614	   -0.006939	   -0.002491	   -0.006392	   -0.008883	   -0.005616	   -0.000899	   -0.006515	   -0.005743	   -0.007571	   -0.013314	   -0.012261	   -0.002799	   -0.015060	   -0.028309	    0.001452	   -0.026857	   -0.034316	   -0.013978	   -0.048293	   -0.028744	   -0.001159	   -0.029902	   -0.010498	    0.009191	   -0.001307	   -0.009445	   -0.002400	   -0.011845	   -0.011569	   -0.005120	   -0.016689	   -0.013060	   -0.004361	   -0.017421	   -0.019646	    0.004709	   -0.014937	   -0.029976	   -0.015112	   -0.045088
     3.150	0	0	    0	   -0.019737	    0.008845	   -0.010892	    0.003677	   -0.002061	    0.001616	   -0.004613	   -0.003056	   -0.007669	   -0.008733	   -0.004818	   -0.013551	   -0.010345	   -0.005804	   -0.016149	   -0.018062	   -0.002598	   -0.020660	   -0.037100	   -0.008450	   -0.045550	   -0.023903	   -0.013561	   -0.037463	   -0.012731	    0.004513	   -0.008218	   -0.003330	   -0.007783	   -0.011114	   -0.006429	   -0.002225	   -0.008653	   -0.005560	   -0.009050	   -0.014610	   -0.016150	   -0.002569	   -0.018719	   -0.030127	   -0.000121	   -0.030249	   -0.036405	   -0.013956	   -0.050361	   -0.030376	   -0.000547	   -0.030923	   -0.013093	    0.009568	   -0.003524	   -0.011956	   -0.002674	   -0.014629	   -0.013844	   -0.006249	   -0.020093	   -0.017030	   -0.003810	   -0.020840	   -0.021252	    0.002425	   -0.018827	   -0.030053	   -0.016027	   -0.046080
     3.225	0	0	    0	   -0.015018	    0.008270	   -0.006748	    0.007920	   -0.003400	    0.004519	   -0.000258	   -0.005411	   -0.005669	   -0.000702	   -0.004792	   -0.005494	   -0.002026	   -0.004272	   -0.006298	   -0.010275	   -0.004625	   -0.014900	   -0.024741	   -0.010086	   -0.034827	   -0.019990	   -0.013293	   -0.033283	   -0.009185	    0.002107	   -0.007078	    0.002204	   -0.008597	   -0.006394	   -0.001723	   -0.003067	   -0.004790	    0.005362	   -0.007991	   -0.002629	   -0.007403	   -0.008008	   -0.015411	   -0.020479	    0.000348	   -0.020132	   -0.030556	   -0.015791	   -0.046347	   -0.027490	   -0.001558	   -0.029047	   -0.006286	    0.005242	   -0.001044	    0.000610	   -0.003477	   -0.002867	   -0.000829	   -0.007254	   -0.008083	   -0.008754	   -0.009351	   -0.018106	   -0.012294	   -0.003566	   -0.015860	   -0.027790	   -0.014922	   -0.042712
     3.300	0	0	    0	   -0.014278	    0.010108	   -0.004171	    0.012219	   -0.002110	    0.010108	    0.003289	   -0.003363	   -0.000074	    0.001283	   -0.003008	   -0.001725	    0.000358	   -0.002637	   -0.002279	   -0.003773	   -0.001012	   -0.004785	   -0.021078	   -0.004092	   -0.025170	   -0.020280	   -0.011774	   -0.032054	   -0.005731	    0.004541	   -0.001190	    0.006280	   -0.006082	    0.000198	    0.002792	   -0.002159	    0.000633	    0.009209	   -0.006988	    0.002221	    0.001061	   -0.001361	   -0.000300	   -0.016345	    0.006576	   -0.009769	   -0.028775	   -0.014803	   -0.043578	   -0.025924	    0.000286	   -0.025638	   -0.001217	    0.007886	    0.006668	    0.005135	   -0.000077	    0.005058	    0.004742	   -0.003372	    0.001370	    0.001166	   -0.003043	   -0.001877	   -0.004825	    0.003623	   -0.001202	   -0.026267	   -0.013469	   -0.039735
     3.375	0	0	    0	   -0.015301	    0.010662	   -0.004639	    0.013067	   -0.002172	    0.010895	    0.005313	   -0.003499	    0.001814	    0.002654	   -0.002614	    0.000040	    0.000800	   -0.002271	   -0.001471	   -0.002752	   -0.000344	   -0.003096	   -0.018857	   -0.007329	   -0.026186	   -0.021259	   -0.010083	   -0.031342	   -0.005138	    0.004673	   -0.000465	    0.006827	   -0.005447	    0.001380	    0.003331	   -0.000684	    0.002647	    0.008151	   -0.005785	    0.002366	    0.004048	   -0.001226	    0.002822	   -0.012590	    0.001705	   -0.010885	   -0.031915	   -0.011235	   -0.043150	   -0.025961	    0.001054	   -0.024907	   -0.000839	    0.009319	    0.008480	    0.006134	    0.000543	    0.006676	    0.005243	   -0.001999	    0.003244	    0.003833	   -0.002820	    0.001013	   -0.002955	    0.003545	    0.000590	   -0.028258	   -0.011386	   -0.039644
     3.450	0	0	    0	   -0.014323	    0.009415	   -0.004907	    0.012590	   -0.002069	    0.010521	    0.005297	   -0.003371	    0.001925	    0.002937	   -0.003328	   -0.000392	    0.001777	   -0.002959	   -0.001183	   -0.003088	   -0.000450	   -0.003538	   -0.023381	   -0.002674	   -0.026056	   -0.020123	   -0.010514	   -0.030637	   -0.006412	    0.006196	   -0.000215	    0.007443	   -0.006573	    0.000870	    0.002812	   -0.000280	    0.002532	    0.009855	   -0.006583	    0.003272	    0.002053	    0.000015	    0.002068	   -0.015444	    0.005682	   -0.009763	   -0.031014	   -0.013699	   -0.044712	   -0.026403	    0.000904	   -0.025498	   -0.003972	    0.011543	    0.007570	    0.005062	    0.000488	    0.005550	    0.004830	   -0.002680	    0.002151	    0.001991	   -0.001388	    0.000603	   -0.005021	    0.005930	    0.000909	   -0.027288	   -0.012101	   -0.039389
     3.525	0	0	    0	   -0.016399	    0.011034	   -0.005365	    0.012079	   -0.001881	    0.010198	    0.005676	   -0.003265	    0.002412	    0.002954	   -0.002434	    0.000519	    0.001785	   -0.002932	   -0.001147	   -0.004240	    0.000609	   -0.003631	   -0.022274	   -0.005722	   -0.027995	   -0.021246	   -0.010287	   -0.031532	   -0.005725	    0.005146	   -0.000579	    0.006725	   -0.005422	    0.001303	    0.003326	   -0.000185	    0.003141	    0.009196	   -0.006852	    0.002344	    0.002544	   -0.000494	    0.002050	   -0.017021	    0.003793	   -0.013228	   -0.030733	   -0.014375	   -0.045108	   -0.027061	    0.000970	   -0.026092	   -0.001125	    0.008526	    0.007401	    0.005355	    0.000523	    0.005878	    0.004793	   -0.002257	    0.002536	    0.002842	   -0.002343	    0.000499	   -0.003019	    0.001863	   -0.001156	   -0.027266	   -0.013511	   -0.040777
     3.600	0	0	    0	   -0.017715	    0.011206	   -0.006509	    0.010839	   -0.001703	    0.009136	    0.004416	   -0.002475	    0.001940	    0.000899	   -0.001610	   -0.000711	   -0.000041	   -0.002443	   -0.002484	   -0.004491	    0.000287	   -0.004203	   -0.026097	   -0.003885	   -0.029981	   -0.022999	   -0.009782	   -0.032781	   -0.006726	    0.005508	   -0.001218	    0.004897	   -0.004741	    0.000156	    0.003064	   -0.000136	    0.002928	    0.006229	   -0.005034	    0.001195	    0.001395	    0.000156	    0.001551	   -0.021784	    0.009404	   -0.012381	   -0.030026	   -0.015838	   -0.045864	   -0.027791	    0.001779	   -0.026012	   -0.004063	    0.010664	    0.006601	    0.003770	    0.000303	    0.004073	    0.003390	   -0.002601	    0.000790	    0.002060	   -0.001975	    0.000085	   -0.005515	    0.004498	   -0.001018	   -0.027763	   -0.012987	   -0.040750
     3.675	0	0	    0	   -0.019416	    0.010976	   -0.008440	    0.008876	   -0.002322	    0.006553	    0.002952	   -0.002606	    0.000346	   -0.000198	   -0.002588	   -0.002786	   -0.002603	   -0.002183	   -0.004786	   -0.007540	   -0.000052	   -0.007592	   -0.032745	   -0.004459	   -0.037204	   -0.024638	   -0.008745	   -0.033384	   -0.007275	    0.004274	   -0.003002	    0.003258	   -0.005676	   -0.002418	    0.001855	   -0.000427	    0.001428	    0.004733	   -0.006650	   -0.001917	   -0.001018	   -0.000485	   -0.001504	   -0.017977	    0.000068	   -0.017909	   -0.034755	   -0.013991	   -0.048747	   -0.029093	    0.002335	   -0.026759	   -0.004238	    0.008466	    0.004228	    0.000504	   -0.000051	    0.000453	    0.000273	   -0.002810	   -0.002537	    0.000099	   -0.003255	   -0.003156	   -0.006749	    0.002052	   -0.004697	   -0.031379	   -0.011561	   -0.042939
     3.750	0	0	    0	   -0.020762	    0.011248	   -0.009514	    0.007049	   -0.002447	    0.004603	    0.001700	   -0.003216	   -0.001516	   -0.001652	   -0.003225	   -0.004877	   -0.003932	   -0.003096	   -0.007028	   -0.009340	   -0.000942	   -0.010282	   -0.033960	   -0.005057	   -0.039017	   -0.025626	   -0.008645	   -0.034271	   -0.009402	    0.005370	   -0.004032	    0.001809	   -0.005521	   -0.003712	   -0.000089	   -0.000251	   -0.000340	    0.002541	   -0.006525	   -0.003985	   -0.004384	   -0.000701	   -0.005085	   -0.021098	    0.001118	   -0.019980	   -0.036219	   -0.013919	   -0.050138	   -0.030332	    0.002630	   -0.027702	   -0.006714	    0.009531	    0.002817	   -0.001626	   -0.000502	   -0.002128	   -0.002602	   -0.003398	   -0.005999	   -0.003416	   -0.002914	   -0.006330	   -0.012084	    0.004426	   -0.007659	   -0.031837	   -0.013643	   -0.045480
     3.825	0	0	    0	   -0.021148	    0.009845	   -0.011303	    0.005642	   -0.002926	    0.002715	   -0.000042	   -0.003166	   -0.003208	   -0.002651	   -0.004175	   -0.006826	   -0.005758	   -0.003567	   -0.009325	   -0.011488	   -0.001506	   -0.012994	   -0.033134	   -0.009576	   -0.042710	   -0.026482	   -0.009075	   -0.035557	   -0.011298	    0.005500	   -0.005798	   -0.000428	   -0.005912	   -0.006341	   -0.001946	   -0.000170	   -0.002116	   -0.000325	   -0.006604	   -0.006929	   -0.007484	   -0.001003	   -0.008487	   -0.024981	    0.004207	   -0.020774	   -0.037740	   -0.014658	   -0.052398	   -0.031639	    0.002840	   -0.028799	   -0.007918	    0.007958	    0.000040	   -0.004397	   -0.001052	   -0.005450	   -0.004650	   -0.004706	   -0.009357	   -0.007651	   -0.002399	   -0.010050	   -0.013393	    0.002664	   -0.010729	   -0.034289	   -0.012498	   -0.046787
     3.900	0	0	    0	   -0.022573	    0.009958	   -0.012616	    0.004901	   -0.003576	    0.001324	   -0.001144	   -0.004016	   -0.005160	   -0.005394	   -0.003569	   -0.008963	   -0.007521	   -0.003528	   -0.011049	   -0.011939	   -0.003442	   -0.015380	   -0.034960	   -0.008302	   -0.043262	   -0.027880	   -0.007969	   -0.035849	   -0.012899	    0.005763	   -0.007136	   -0.001534	   -0.007301	   -0.008836	   -0.003334	   -0.000489	   -0.003823	   -0.003003	   -0.006805	   -0.009809	   -0.009553	   -0.002038	   -0.011591	   -0.025361	    0.000825	   -0.024536	   -0.036343	   -0.016618	   -0.052961	   -0.032347	    0.002837	   -0.029509	   -0.011541	    0.009702	   -0.001839	   -0.006521	   -0.001989	   -0.008510	   -0.007509	   -0.004970	   -0.012478	   -0.011181	   -0.002249	   -0.013430	   -0.017042	    0.003662	   -0.013380	   -0.033479	   -0.014675	   -0.048154
     3.975	0	0	    0	   -0.023838	    0.009634	   -0.014203	    0.002155	   -0.002974	   -0.000819	   -0.002978	   -0.003786	   -0.006764	   -0.007383	   -0.003570	   -0.010953	   -0.009172	   -0.004364	   -0.013535	   -0.016197	   -0.002052	   -0.018249	   -0.037627	   -0.009619	   -0.047247	   -0.029179	   -0.008458	   -0.037637	   -0.014748	    0.006039	   -0.008709	   -0.003733	   -0.007248	   -0.010980	   -0.005207	   -0.000504	   -0.005710	   -0.004667	   -0.008039	   -0.012706	   -0.013588	   -0.001039	   -0.014627	   -0.030814	    0.002416	   -0.028398	   -0.039398	   -0.016289	   -0.055686	   -0.033511	    0.003001	   -0.030510	   -0.012344	    0.008116	   -0.004228	   -0.009642	   -0.002282	   -0.011924	   -0.009824	   -0.005641	   -0.015465	   -0.013117	   -0.004211	   -0.017328	   -0.020707	    0.003795	   -0.016911	   -0.036733	   -0.013649	   -0.050383
     4.050	0	0	    0	   -0.025310	    0.010867	   -0.014443	   -0.000259	   -0.002897	   -0.003157	   -0.005137	   -0.003681	   -0.008818	   -0.009661	   -0.003518	   -0.013180	   -0.011401	   -0.004562	   -0.015963	   -0.019440	   -0.002169	   -0.021608	   -0.043968	   -0.008202	   -0.052170	   -0.030236	   -0.008807	   -0.039043	   -0.016323	    0.006029	   -0.010294	   -0.007533	   -0.006359	   -0.013892	   -0.006603	   -0.001346	   -0.007949	   -0.007431	   -0.007787	   -0.015218	   -0.016418	   -0.001913	   -0.018331	   -0.033197	    0.000046	   -0.033151	   -0.042319	   -0.016232	   -0.058551	   -0.035188	    0.003579	   -0.031609	   -0.016611	    0.009879	   -0.006732	   -0.012744	   -0.002802	   -0.015547	   -0.013349	   -0.005742	   -0.019091	   -0.016904	   -0.003316	   -0.020220	   -0.023155	    0.002611	   -0.020544	   -0.039156	   -0.013593	   -0.052749
     4.125	0	0	    0	   -0.019451	    0.010441	   -0.009010	    0.002627	   -0.004364	   -0.001737	   -0.002971	   -0.005474	   -0.008445	   -0.001592	   -0.004977	   -0.006569	   -0.002311	   -0.004747	   -0.007058	   -0.013038	   -0.006267	   -0.019305	   -0.032811	   -0.011432	   -0.044243	   -0.025045	   -0.009084	   -0.034129	   -0.015010	    0.004359	   -0.010651	   -0.002310	   -0.008760	   -0.011070	   -0.003849	   -0.002122	   -0.005970	    0.005353	   -0.009729	   -0.004376	   -0.013629	   -0.005771	   -0.019401	   -0.021863	   -0.004193	   -0.026056	   -0.039428	   -0.015502	   -0.054930	   -0.033774	    0.002796	   -0.030978	   -0.014229	    0.007401	   -0.006828	   -0.003322	   -0.004243	   -0.007565	   -0.003596	   -0.007630	   -0.011226	   -0.013250	   -0.008392	   -0.021642	   -0.020617	   -0.000066	   -0.020683	   -0.035569	   -0.014208	   -0.049777
     4.200	0	0	    0	   -0.018943	    0.012389	   -0.006554	    0.006672	   -0.002378	    0.004294	    0.000947	   -0.002807	   -0.001860	    0.001744	   -0.002829	   -0.001085	    0.000981	   -0.002980	   -0.001998	   -0.006343	   -0.000885	   -0.007228	   -0.032507	    0.000472	   -0.032036	   -0.025429	   -0.006967	   -0.032396	   -0.010327	    0.006764	   -0.003564	    0.002447	   -0.006247	   -0.003799	    0.001711	   -0.001404	    0.000307	    0.008762	   -0.007076	    0.001686	   -0.000213	   -0.001692	   -0.001906	   -0.019603	    0.007655	   -0.011948	   -0.036137	   -0.015424	   -0.051560	   -0.031019	    0.004939	   -0.026080	   -0.006849	    0.009483	    0.002634	    0.003609	   -0.000879	    0.002730	    0.004604	   -0.003201	    0.001403	   -0.000753	   -0.002045	   -0.002798	   -0.008615	    0.004586	   -0.004029	   -0.031216	   -0.013892	   -0.045108
     4.275	0	0	    0	   -0.018559	    0.012436	   -0.006123	    0.008107	   -0.002055	    0.006053	    0.003892	   -0.003514	    0.000378	    0.003419	   -0.003269	    0.000151	    0.001795	   -0.002312	   -0.000517	   -0.004174	   -0.000256	   -0.004429	   -0.024859	   -0.006384	   -0.031243	   -0.025558	   -0.006354	   -0.031912	   -0.009622	    0.007476	   -0.002147	    0.004401	   -0.005998	   -0.001597	    0.002970	   -0.000510	    0.002460	    0.009991	   -0.006978	    0.003012	    0.001198	    0.001168	    0.002366	   -0.014484	    0.003511	   -0.010973	   -0.036870	   -0.013903	   -0.050773	   -0.031242	    0.005708	   -0.025534	   -0.005187	    0.009871	    0.004683	    0.005345	    0.000149	    0.005494	    0.006474	   -0.002227	    0.004247	    0.001770	   -0.000843	    0.000927	   -0.005742	    0.004036	   -0.001706	   -0.033775	   -0.012624	   -0.046399
     4.350	0	0	    0	   -0.019570	    0.013609	   -0.005962	    0.007625	   -0.002406	    0.005220	    0.003789	   -0.002341	    0.001448	    0.002807	   -0.001435	    0.001372	    0.001517	   -0.001649	   -0.000132	   -0.004107	    0.000314	   -0.003793	   -0.026794	   -0.006374	   -0.033168	   -0.026365	   -0.005669	   -0.032034	   -0.009531	    0.007703	   -0.001828	    0.002981	   -0.005573	   -0.002592	    0.003277	   -0.000061	    0.003216	    0.009139	   -0.006094	    0.003046	    0.001206	    0.001850	    0.003056	   -0.016938	    0.005369	   -0.011568	   -0.035578	   -0.016038	   -0.051616	   -0.031491	    0.006023	   -0.025468	   -0.004999	    0.009789	    0.004791	    0.003908	    0.000153	    0.004062	    0.005723	   -0.002132	    0.003591	    0.000993	    0.001041	    0.002034	   -0.007901	    0.006264	   -0.001636	   -0.033121	   -0.012953	   -0.046074
     4.425	0	0	    0	   -0.018701	    0.011870	   -0.006831	    0.006394	   -0.001278	    0.005116	    0.003779	   -0.002280	    0.001499	    0.004080	   -0.002989	    0.001091	    0.002579	   -0.002502	    0.000077	   -0.004657	    0.000593	   -0.004064	   -0.030845	   -0.002266	   -0.033111	   -0.027177	   -0.005532	   -0.032709	   -0.010076	    0.007504	   -0.002572	    0.003169	   -0.005945	   -0.002775	    0.003084	    0.000093	    0.003177	    0.009193	   -0.006639	    0.002553	    0.001520	    0.000559	    0.002080	   -0.018638	    0.006033	   -0.012605	   -0.035868	   -0.015876	   -0.051744	   -0.032499	    0.006603	   -0.025896	   -0.006661	    0.009402	    0.002741	    0.003664	   -0.000055	    0.003609	    0.005999	   -0.002300	    0.003699	    0.000192	    0.000389	    0.000581	   -0.007670	    0.004895	   -0.002775	   -0.032829	   -0.013217	   -0.046046
     4.500	0	0	    0	   -0.020290	    0.013085	   -0.007205	    0.006914	   -0.002268	    0.004646	    0.004066	   -0.002741	    0.001325	    0.002605	   -0.002316	    0.000289	    0.001275	   -0.002063	   -0.000789	   -0.004231	   -0.000056	   -0.004287	   -0.028854	   -0.005480	   -0.034334	   -0.027651	   -0.005823	   -0.033474	   -0.010968	    0.008716	   -0.002252	    0.002522	   -0.005837	   -0.003315	    0.002668	    0.000207	    0.002875	    0.008604	   -0.007799	    0.000805	   -0.000017	    0.002375	    0.002358	   -0.019267	    0.006817	   -0.012450	   -0.038336	   -0.013327	   -0.051663	   -0.033144	    0.007020	   -0.026124	   -0.008843	    0.012098	    0.003255	    0.002527	   -0.000115	    0.002411	    0.004643	   -0.002023	    0.002620	   -0.000931	    0.001810	    0.000880	   -0.010143	    0.006692	   -0.003451	   -0.035088	   -0.012578	   -0.047666
     4.575	0	0	    0	   -0.021849	    0.013312	   -0.008537	    0.005084	   -0.002154	    0.002930	    0.002709	   -0.002750	   -0.000041	    0.000191	   -0.001991	   -0.001800	   -0.000903	   -0.001839	   -0.002742	   -0.007200	    0.000527	   -0.006673	   -0.032468	   -0.006483	   -0.038952	   -0.029853	   -0.004961	   -0.034814	   -0.012182	    0.008203	   -0.003980	   -0.000568	   -0.005524	   -0.006092	    0.001541	   -0.000324	    0.001217	    0.003939	   -0.006602	   -0.002663	   -0.002492	    0.001890	   -0.000602	   -0.019162	    0.002473	   -0.016689	   -0.038386	   -0.016230	   -0.054616	   -0.034120	    0.007220	   -0.026899	   -0.010777	    0.011060	    0.000283	   -0.000539	   -0.000770	   -0.001309	    0.001845	   -0.002653	   -0.000808	   -0.003952	    0.000922	   -0.003029	   -0.011097	    0.004413	   -0.006685	   -0.037710	   -0.012022	   -0.049732
     4.650	0	0	    0	   -0.023148	    0.013687	   -0.009461	    0.002971	   -0.001943	    0.001028	    0.000359	   -0.002477	   -0.002119	   -0.001739	   -0.002021	   -0.003760	   -0.002546	   -0.002259	   -0.004805	   -0.008000	   -0.000998	   -0.008998	   -0.037803	   -0.003548	   -0.041351	   -0.031628	   -0.004110	   -0.035738	   -0.013072	    0.007572	   -0.005500	   -0.003213	   -0.005222	   -0.008435	   -0.000931	   -0.000566	   -0.001497	    0.001372	   -0.006616	   -0.005244	   -0.004352	    0.000126	   -0.004226	   -0.022668	    0.003486	   -0.019181	   -0.041311	   -0.014948	   -0.056258	   -0.035099	    0.006956	   -0.028143	   -0.011743	    0.010083	   -0.001660	   -0.003957	   -0.000559	   -0.004516	   -0.001163	   -0.002701	   -0.003865	   -0.006633	   -0.000218	   -0.006851	   -0.013522	    0.003766	   -0.009756	   -0.035774	   -0.014564	   -0.050338
     4.725	0	0	    0	   -0.022956	    0.011863	   -0.011092	    0.001170	   -0.001898	   -0.000728	   -0.000241	   -0.003576	   -0.003817	   -0.002241	   -0.003962	   -0.006202	   -0.003923	   -0.003237	   -0.007159	   -0.011633	   -0.000684	   -0.012317	   -0.035226	   -0.009832	   -0.045057	   -0.032603	   -0.004896	   -0.037499	   -0.014031	    0.007629	   -0.006402	   -0.004083	   -0.006778	   -0.010861	   -0.003484	   -0.000608	   -0.004092	   -0.000245	   -0.008189	   -0.008434	   -0.007639	   -0.000130	   -0.007769	   -0.026190	    0.003087	   -0.023102	   -0.044347	   -0.014497	   -0.058844	   -0.036301	    0.007267	   -0.029034	   -0.013139	    0.008645	   -0.004495	   -0.007260	   -0.000453	   -0.007713	   -0.003833	   -0.002823	   -0.006656	   -0.008447	   -0.002385	   -0.010833	   -0.016175	    0.002734	   -0.013441	   -0.040857	   -0.012239	   -0.053096
     4.800	0	0	    0	   -0.025309	    0.013909	   -0.011399	   -0.000273	   -0.001768	   -0.002041	   -0.002098	   -0.003720	   -0.005818	   -0.004648	   -0.003762	   -0.008410	   -0.006566	   -0.003003	   -0.009569	   -0.013608	   -0.001729	   -0.015336	   -0.038559	   -0.009432	   -0.047991	   -0.034169	   -0.005686	   -0.039855	   -0.015087	    0.007028	   -0.008060	   -0.006969	   -0.006996	   -0.013965	   -0.004968	   -0.001867	   -0.006835	   -0.002558	   -0.009193	   -0.011751	   -0.010164	   -0.001201	   -0.011365	   -0.028255	    0.001761	   -0.026493	   -0.045385	   -0.015215	   -0.060601	   -0.037380	    0.007543	   -0.029837	   -0.014049	    0.006867	   -0.007182	   -0.008987	   -0.001949	   -0.010935	   -0.006676	   -0.003387	   -0.010064	   -0.011988	   -0.003005	   -0.014993	   -0.018983	    0.001564	   -0.017419	   -0.040848	   -0.014618	   -0.055466
     4.875	0	0	    0	   -0.027146	    0.014189	   -0.012957	   -0.002095	   -0.001760	   -0.003855	   -0.004325	   -0.003844	   -0.008169	   -0.008104	   -0.002934	   -0.011038	   -0.009075	   -0.002927	   -0.012002	   -0.015847	   -0.002538	   -0.018384	   -0.039012	   -0.012580	   -0.051592	   -0.035841	   -0.004957	   -0.040798	   -0.017171	    0.007597	   -0.009575	   -0.008425	   -0.008045	   -0.016471	   -0.007241	   -0.002173	   -0.009414	   -0.007489	   -0.008072	   -0.015561	   -0.013612	   -0.001470	   -0.015082	   -0.031841	    0.005789	   -0.026052	   -0.046214	   -0.016464	   -0.062678	   -0.038658	    0.008157	   -0.030502	   -0.018399	    0.008956	   -0.009443	   -0.011645	   -0.002312	   -0.013957	   -0.008853	   -0.004351	   -0.013205	   -0.014790	   -0.003895	   -0.018685	   -0.022810	    0.002926	   -0.019885	   -0.041240	   -0.015433	   -0.056673
     4.950	0	0	    0	   -0.028439	    0.013734	   -0.014705	   -0.003991	   -0.001793	   -0.005784	   -0.005049	   -0.004932	   -0.009981	   -0.008932	   -0.003735	   -0.012668	   -0.011583	   -0.003174	   -0.014757	   -0.017646	   -0.003517	   -0.021163	   -0.044726	   -0.010259	   -0.054986	   -0.037570	   -0.004111	   -0.041681	   -0.018938	    0.007834	   -0.011104	   -0.011268	   -0.007662	   -0.018931	   -0.008641	   -0.002720	   -0.011361	   -0.008987	   -0.009073	   -0.018060	   -0.016552	   -0.001755	   -0.018307	   -0.032733	    0.001231	   -0.031502	   -0.047404	   -0.017071	   -0.064474	   -0.039864	    0.008244	   -0.031621	   -0.021371	    0.009745	   -0.011625	   -0.014444	   -0.003127	   -0.017571	   -0.012079	   -0.004748	   -0.016828	   -0.020088	   -0.002365	   -0.022454	   -0.025331	    0.000455	   -0.024876	   -0.043870	   -0.015796	   -0.059666
     5.025	0	0	    0	   -0.024773	    0.012542	   -0.012231	   -0.005334	   -0.001961	   -0.007295	   -0.007341	   -0.004933	   -0.012275	   -0.004958	   -0.006063	   -0.011021	   -0.006363	   -0.004749	   -0.011113	   -0.020076	   -0.003713	   -0.023788	   -0.047394	   -0.009592	   -0.056986	   -0.033745	   -0.004733	   -0.038478	   -0.020505	    0.008131	   -0.012374	   -0.011375	   -0.008787	   -0.020163	   -0.009536	   -0.003462	   -0.012998	   -0.002013	   -0.011351	   -0.013364	   -0.019174	   -0.003165	   -0.022338	   -0.032478	   -0.000570	   -0.033048	   -0.047421	   -0.016429	   -0.063850	   -0.041008	    0.008142	   -0.032866	   -0.021845	    0.007530	   -0.014316	   -0.012169	   -0.004800	   -0.016968	   -0.010476	   -0.006989	   -0.017465	   -0.021564	   -0.005452	   -0.027017	   -0.025976	   -0.002139	   -0.028115	   -0.045481	   -0.013662	   -0.059143
     5.100	0	0	    0	   -0.022195	    0.012858	   -0.009337	    0.001095	   -0.002555	   -0.001460	   -0.002035	   -0.004831	   -0.006866	    0.000465	   -0.004412	   -0.003947	   -0.001390	   -0.003282	   -0.004672	   -0.010285	   -0.002102	   -0.012386	   -0.031993	   -0.006579	   -0.038573	   -0.031838	   -0.003286	   -0.035124	   -0.015753	    0.008810	   -0.006944	   -0.004065	   -0.007631	   -0.011696	   -0.002990	   -0.003612	   -0.006602	    0.005005	   -0.009099	   -0.004094	   -0.004429	   -0.004194	   -0.008623	   -0.021531	    0.004625	   -0.016906	   -0.043178	   -0.015691	   -0.058869	   -0.037604	    0.009124	   -0.028480	   -0.014281	    0.007757	   -0.006524	   -0.001111	   -0.002178	   -0.003289	    0.001580	   -0.004139	   -0.002559	   -0.008708	   -0.003417	   -0.012126	   -0.014862	    0.000531	   -0.014331	   -0.038274	   -0.014950	   -0.053224
     5.175	0	0	    0	   -0.023391	    0.013371	   -0.010021	    0.000103	   -0.000772	   -0.000669	   -0.000709	   -0.003894	   -0.004604	    0.000401	   -0.002581	   -0.002180	   -0.002049	   -0.002391	   -0.004440	   -0.008367	   -0.000972	   -0.009339	   -0.033143	   -0.006786	   -0.039929	   -0.033240	   -0.002365	   -0.035605	   -0.015535	    0.009731	   -0.005804	   -0.003452	   -0.006166	   -0.009618	   -0.002107	   -0.002254	   -0.004360	    0.003744	   -0.008165	   -0.004421	   -0.002743	    0.000298	   -0.002446	   -0.023422	    0.008614	   -0.014808	   -0.044960	   -0.013323	   -0.058283	   -0.037408	    0.009790	   -0.027618	   -0.012122	    0.009635	   -0.002487	   -0.001563	    0.000184	   -0.001379	    0.001605	   -0.002267	   -0.000662	   -0.003549	   -0.001951	   -0.005499	   -0.010555	    0.001701	   -0.008853	   -0.041880	   -0.011034	   -0.052914
     5.250	0	0	    0	   -0.025110	    0.014332	   -0.010778	    0.000400	   -0.002553	   -0.002153	   -0.001058	   -0.004194	   -0.005252	   -0.000077	   -0.002921	   -0.002998	   -0.002526	   -0.002626	   -0.005152	   -0.009247	   -0.000979	   -0.010226	   -0.030377	   -0.011409	   -0.041787	   -0.033594	   -0.002064	   -0.035658	   -0.016570	    0.009767	   -0.006802	   -0.004389	   -0.006228	   -0.010617	   -0.003036	   -0.001825	   -0.004861	    0.002634	   -0.007758	   -0.005124	   -0.003972	    0.001063	   -0.002909	   -0.022236	    0.004927	   -0.017309	   -0.043929	   -0.014839	   -0.058768	   -0.038592	    0.010335	   -0.028257	   -0.013403	    0.010206	   -0.003197	   -0.002060	   -0.000914	   -0.002974	    0.000371	   -0.002935	   -0.002565	   -0.006612	    0.000559	   -0.006053	   -0.011398	    0.001572	   -0.009826	   -0.040048	   -0.014754	   -0.054802
     5.325	0	0	    0	   -0.024356	    0.013796	   -0.010560	   -0.001561	   -0.001329	   -0.002890	   -0.001625	   -0.003993	   -0.005618	    0.000544	   -0.002463	   -0.001919	   -0.001814	   -0.002835	   -0.004648	   -0.009725	   -0.001437	   -0.011162	   -0.034221	   -0.008757	   -0.042977	   -0.033897	   -0.001933	   -0.035831	   -0.016259	    0.008403	   -0.007856	   -0.004193	   -0.006651	   -0.010844	   -0.002194	   -0.002374	   -0.004569	    0.003047	   -0.008852	   -0.005805	   -0.004424	   -0.000097	   -0.004521	   -0.024612	    0.007631	   -0.016981	   -0.043486	   -0.015755	   -0.059241	   -0.039054	    0.010851	   -0.028203	   -0.013509	    0.008804	   -0.004705	   -0.001230	   -0.001411	   -0.002641	    0.000741	   -0.003429	   -0.002689	   -0.006095	   -0.002572	   -0.008667	   -0.013014	    0.002339	   -0.010675	   -0.039019	   -0.013794	   -0.052813
     5.400	0	0	    0	   -0.026369	    0.015611	   -0.010758	   -0.001529	   -0.001301	   -0.002830	   -0.001579	   -0.003852	   -0.005431	   -0.000517	   -0.002284	   -0.002800	   -0.003844	   -0.002122	   -0.005966	   -0.009941	   -0.001353	   -0.011294	   -0.035357	   -0.008460	   -0.043816	   -0.035988	   -0.000715	   -0.036704	   -0.017793	    0.010563	   -0.007230	   -0.004451	   -0.006060	   -0.010511	   -0.002862	   -0.001583	   -0.004444	    0.001341	   -0.007383	   -0.006042	   -0.005040	    0.001241	   -0.003798	   -0.020077	    0.003196	   -0.016881	   -0.047394	   -0.012398	   -0.059792	   -0.039086	    0.011702	   -0.027383	   -0.015252	    0.011774	   -0.003478	   -0.003051	   -0.000194	   -0.003245	   -0.000642	   -0.002764	   -0.003406	   -0.006247	   -0.001148	   -0.007395	   -0.013426	    0.003729	   -0.009697	   -0.042549	   -0.011350	   -0.053900
     5.475	0	0	    0	   -0.026444	    0.014927	   -0.011517	   -0.002560	   -0.001504	   -0.004064	   -0.002203	   -0.004710	   -0.006913	   -0.001935	   -0.002897	   -0.004831	   -0.005186	   -0.002838	   -0.008024	   -0.011514	   -0.001909	   -0.013424	   -0.036829	   -0.009689	   -0.046518	   -0.036645	   -0.000908	   -0.037553	   -0.019161	    0.011060	   -0.008102	   -0.006941	   -0.006057	   -0.012998	   -0.004240	   -0.001778	   -0.006019	   -0.000747	   -0.008354	   -0.009101	   -0.006872	    0.000839	   -0.006033	   -0.026185	    0.005360	   -0.020824	   -0.046609	   -0.014399	   -0.061008	   -0.039691	    0.011974	   -0.027717	   -0.015297	    0.010237	   -0.005060	   -0.005470	   -0.000980	   -0.006450	   -0.003278	   -0.003590	   -0.006868	   -0.008766	   -0.000577	   -0.009343	   -0.017273	    0.005191	   -0.012082	   -0.042387	   -0.012623	   -0.055010
     5.550	0	0	    0	   -0.028025	    0.015091	   -0.012934	   -0.005428	   -0.000899	   -0.006327	   -0.004931	   -0.003833	   -0.008764	   -0.004116	   -0.002729	   -0.006845	   -0.007024	   -0.003114	   -0.010138	   -0.016413	   -0.000209	   -0.016622	   -0.046106	   -0.004847	   -0.050953	   -0.038754	   -0.000175	   -0.038928	   -0.020289	    0.010414	   -0.009876	   -0.008935	   -0.006220	   -0.015155	   -0.005670	   -0.001933	   -0.007603	   -0.002713	   -0.008953	   -0.011666	   -0.009701	    0.000103	   -0.009598	   -0.030595	    0.004958	   -0.025637	   -0.047611	   -0.015184	   -0.062795	   -0.040830	    0.012120	   -0.028711	   -0.017715	    0.010205	   -0.007510	   -0.008580	   -0.000768	   -0.009348	   -0.005879	   -0.004047	   -0.009926	   -0.011839	   -0.000674	   -0.012513	   -0.018105	    0.002541	   -0.015564	   -0.044855	   -0.013519	   -0.058375
     5.625	0	0	    0	   -0.029208	    0.014660	   -0.014548	   -0.007171	   -0.001008	   -0.008179	   -0.006527	   -0.003892	   -0.010419	   -0.005752	   -0.003048	   -0.008800	   -0.009717	   -0.003314	   -0.013031	   -0.017961	   -0.002286	   -0.020247	   -0.047963	   -0.006386	   -0.054349	   -0.039352	   -0.000437	   -0.039789	   -0.020835	    0.009279	   -0.011555	   -0.010823	   -0.006280	   -0.017103	   -0.007458	   -0.001992	   -0.009451	   -0.006056	   -0.009011	   -0.015067	   -0.011962	   -0.001604	   -0.013566	   -0.037373	    0.007042	   -0.030331	   -0.049361	   -0.015701	   -0.065061	   -0.042260	    0.012634	   -0.029627	   -0.018635	    0.009390	   -0.009245	   -0.010787	   -0.001873	   -0.012660	   -0.008775	   -0.004780	   -0.013555	   -0.013802	   -0.002990	   -0.016791	   -0.020372	    0.000876	   -0.019497	   -0.045615	   -0.015257	   -0.060872
     5.700	0	0	    0	   -0.030488	    0.015079	   -0.015409	   -0.006825	   -0.002773	   -0.009598	   -0.007883	   -0.004290	   -0.012173	   -0.007918	   -0.003019	   -0.010937	   -0.011121	   -0.003979	   -0.015099	   -0.018007	   -0.004533	   -0.022540	   -0.044634	   -0.013959	   -0.058594	   -0.040580	   -0.000263	   -0.040843	   -0.023108	    0.010262	   -0.012846	   -0.012064	   -0.007280	   -0.019343	   -0.008658	   -0.002644	   -0.011302	   -0.008821	   -0.008628	   -0.017449	   -0.014962	   -0.001686	   -0.016647	   -0.033888	    0.000814	   -0.033074	   -0.051166	   -0.016658	   -0.067824	   -0.043199	    0.012393	   -0.030805	   -0.019374	    0.007673	   -0.011701	   -0.014531	   -0.001606	   -0.016137	   -0.011458	   -0.005248	   -0.016707	   -0.017374	   -0.002595	   -0.019969	   -0.022620	    0.000369	   -0.022250	   -0.049427	   -0.012799	   -0.062226
     5.775	0	0	    0	   -0.032451	    0.015543	   -0.016907	   -0.010486	   -0.001247	   -0.011733	   -0.010241	   -0.004049	   -0.014290	   -0.010133	   -0.002847	   -0.012980	   -0.013271	   -0.004132	   -0.017403	   -0.022793	   -0.002822	   -0.025615	   -0.053140	   -0.007458	   -0.060598	   -0.042229	    0.000808	   -0.041421	   -0.023337	    0.008950	   -0.014388	   -0.014392	   -0.007263	   -0.021655	   -0.010981	   -0.002376	   -0.013357	   -0.010441	   -0.010059	   -0.020500	   -0.016552	   -0.003193	   -0.019745	   -0.040436	    0.003165	   -0.037271	   -0.054913	   -0.013843	   -0.068756	   -0.044836	    0.013117	   -0.031719	   -0.021355	    0.008022	   -0.013333	   -0.016351	   -0.002308	   -0.018659	   -0.013683	   -0.006229	   -0.019912	   -0.017889	   -0.006214	   -0.024103	   -0.024766	   -0.001283	   -0.026049	   -0.049707	   -0.014577	   -0.064284
     5.850	0	0	    0	   -0.033215	    0.014957	   -0.018258	   -0.011248	   -0.002033	   -0.013281	   -0.011718	   -0.004591	   -0.016308	   -0.011153	   -0.004282	   -0.015435	   -0.016329	   -0.003673	   -0.020003	   -0.024184	   -0.004633	   -0.028817	   -0.051856	   -0.011316	   -0.063172	   -0.043080	    0.000475	   -0.042605	   -0.025632	    0.009940	   -0.015692	   -0.016794	   -0.007424	   -0.024219	   -0.013201	   -0.002440	   -0.015641	   -0.012647	   -0.010797	   -0.023443	   -0.021894	   -0.001341	   -0.023235	   -0.042746	    0.003696	   -0.039050	   -0.055463	   -0.015395	   -0.070858	   -0.046554	    0.013886	   -0.032668	   -0.025558	    0.009872	   -0.015686	   -0.019063	   -0.003031	   -0.022094	   -0.016216	   -0.006937	   -0.023153	   -0.024219	   -0.002714	   -0.026933	   -0.030020	    0.001226	   -0.028794	   -0.050811	   -0.014605	   -0.065416
     5.925	0	0	    0	   -0.031314	    0.013950	   -0.017363	   -0.013925	   -0.001449	   -0.015374	   -0.013500	   -0.004815	   -0.018315	   -0.008682	   -0.005670	   -0.014352	   -0.011429	   -0.006283	   -0.017712	   -0.027129	   -0.004961	   -0.032090	   -0.056080	   -0.008963	   -0.065043	   -0.039788	   -0.000106	   -0.039893	   -0.026862	    0.009470	   -0.017392	   -0.018071	   -0.008231	   -0.026302	   -0.013293	   -0.003904	   -0.017197	   -0.007758	   -0.012970	   -0.020728	   -0.024488	   -0.002604	   -0.027092	   -0.040110	   -0.000075	   -0.040184	   -0.053390	   -0.017992	   -0.071383	   -0.047376	    0.013348	   -0.034028	   -0.025550	    0.007625	   -0.017925	   -0.017886	   -0.005289	   -0.023175	   -0.016464	   -0.008622	   -0.025086	   -0.026650	   -0.004825	   -0.031475	   -0.032239	    0.000804	   -0.031435	   -0.051136	   -0.014414	   -0.065549
     6.000	0	0	    0	   -0.027359	    0.014979	   -0.012380	   -0.006584	   -0.002330	   -0.008914	   -0.006928	   -0.005467	   -0.012395	   -0.000501	   -0.004009	   -0.004509	   -0.004499	   -0.003280	   -0.007779	   -0.014809	   -0.004636	   -0.019444	   -0.034954	   -0.009439	   -0.044394	   -0.037624	    0.002309	   -0.035315	   -0.021333	    0.009543	   -0.011791	   -0.008352	   -0.007681	   -0.016033	   -0.005827	   -0.004169	   -0.009997	    0.002649	   -0.009343	   -0.006694	   -0.008632	   -0.006100	   -0.014731	   -0.026900	    0.004414	   -0.022486	   -0.048989	   -0.015981	   -0.064970	   -0.043095	    0.013088	   -0.030007	   -0.016211	    0.006796	   -0.009414	   -0.003192	   -0.002640	   -0.005832	    0.000338	   -0.006891	   -0.006553	   -0.011037	   -0.007335	   -0.018372	   -0.016182	   -0.003288	   -0.019470	   -0.044139	   -0.014696	   -0.058835
     6.075	0	0	    0	   -0.026125	    0.014523	   -0.011603	   -0.003872	   -0.001197	   -0.005069	   -0.003313	   -0.004408	   -0.007721	    0.001814	   -0.002776	   -0.000962	   -0.002140	   -0.002593	   -0.004733	   -0.012051	   -0.000756	   -0.012807	   -0.035448	   -0.004396	   -0.039844	   -0.036804	    0.002375	   -0.034429	   -0.018989	    0.011347	   -0.007642	   -0.005438	   -0.006080	   -0.011517	   -0.003039	   -0.002397	   -0.005436	    0.006013	   -0.009389	   -0.003376	   -0.002152	   -0.001077	   -0.003229	   -0.023913	    0.005580	   -0.018333	   -0.048905	   -0.014381	   -0.063287	   -0.042220	    0.014777	   -0.027443	   -0.012163	    0.009317	   -0.002846	    0.001712	   -0.001056	    0.000656	    0.004557	   -0.004024	    0.000533	   -0.004115	   -0.001637	   -0.005752	   -0.011542	    0.003312	   -0.008230	   -0.044125	   -0.012403	   -0.056528
     6.150	0	0	    0	   -0.025981	    0.014078	   -0.011903	   -0.002290	   -0.001396	   -0.003686	   -0.001639	   -0.004100	   -0.005739	    0.003248	   -0.002549	    0.000699	   -0.000936	   -0.002272	   -0.003207	   -0.008335	   -0.001695	   -0.010030	   -0.032262	   -0.006218	   -0.038480	   -0.036999	    0.002883	   -0.034116	   -0.018478	    0.012751	   -0.005727	   -0.004096	   -0.005939	   -0.010035	   -0.001327	   -0.001884	   -0.003211	    0.005826	   -0.008459	   -0.002633	   -0.000455	    0.001241	    0.000786	   -0.021903	    0.003011	   -0.018892	   -0.047838	   -0.014226	   -0.062064	   -0.042476	    0.015598	   -0.026879	   -0.012249	    0.012177	   -0.000072	    0.002539	    0.000532	    0.003071	    0.005216	   -0.002397	    0.002819	   -0.003364	    0.001454	   -0.001911	   -0.009352	    0.003775	   -0.005577	   -0.045301	   -0.011037	   -0.056337
     6.225	0	0	    0	   -0.027525	    0.014405	   -0.013119	   -0.002842	   -0.000922	   -0.003764	   -0.001252	   -0.004458	   -0.005710	    0.002345	   -0.001896	    0.000448	   -0.001193	   -0.001980	   -0.003173	   -0.008967	   -0.001797	   -0.010764	   -0.037392	   -0.004540	   -0.041932	   -0.037098	    0.003300	   -0.033798	   -0.017825	    0.011789	   -0.006036	   -0.004460	   -0.005959	   -0.010419	   -0.001234	   -0.001980	   -0.003214	    0.004261	   -0.007717	   -0.003456	   -0.000813	    0.000917	    0.000104	   -0.023997	    0.005049	   -0.018948	   -0.047541	   -0.015814	   -0.063355	   -0.042808	    0.015706	   -0.027102	   -0.010646	    0.009360	   -0.001286	    0.002177	   -0.000154	    0.002023	    0.004116	   -0.002425	    0.001691	   -0.002997	   -0.000297	   -0.003294	   -0.007948	    0.000944	   -0.007004	   -0.043240	   -0.013860	   -0.057099
     6.300	0	0	    0	   -0.028908	    0.014900	   -0.014008	   -0.002617	   -0.001330	   -0.003946	   -0.000824	   -0.004008	   -0.004832	    0.002555	   -0.001267	    0.001288	   -0.001946	   -0.001203	   -0.003149	   -0.007998	   -0.002125	   -0.010123	   -0.032206	   -0.011267	   -0.043472	   -0.038231	    0.004257	   -0.033974	   -0.018098	    0.012442	   -0.005656	   -0.003600	   -0.006986	   -0.010586	   -0.000367	   -0.001920	   -0.002288	    0.004009	   -0.007280	   -0.003272	   -0.000487	    0.000793	    0.000306	   -0.019665	    0.002301	   -0.017364	   -0.049359	   -0.013764	   -0.063123	   -0.043688	    0.016482	   -0.027206	   -0.011589	    0.010522	   -0.001067	    0.002405	   -0.000161	    0.002245	    0.004754	   -0.002592	    0.002163	   -0.002332	   -0.000419	   -0.002752	   -0.009137	    0.003240	   -0.005897	   -0.045646	   -0.011335	   -0.056981
     6.375	0	0	    0	   -0.030818	    0.014924	   -0.015894	   -0.003868	   -0.000783	   -0.004651	   -0.002018	   -0.003353	   -0.005371	    0.000253	   -0.000733	   -0.000480	   -0.002883	   -0.001791	   -0.004674	   -0.010635	   -0.000430	   -0.011065	   -0.038521	   -0.005262	   -0.043783	   -0.039589	    0.004947	   -0.034643	   -0.017568	    0.010830	   -0.006738	   -0.005806	   -0.005385	   -0.011191	   -0.002111	   -0.001072	   -0.003183	    0.002424	   -0.007728	   -0.005304	   -0.000732	   -0.000003	   -0.000735	   -0.026316	    0.006314	   -0.020001	   -0.050500	   -0.013870	   -0.064370	   -0.043957	    0.016339	   -0.027618	   -0.010561	    0.008713	   -0.001848	   -0.000035	    0.000017	   -0.000018	    0.002396	   -0.002350	    0.000046	   -0.003769	    0.000064	   -0.003705	   -0.011962	    0.004923	   -0.007039	   -0.046436	   -0.011559	   -0.057995
     6.450	0	0	    0	   -0.031466	    0.014292	   -0.017174	   -0.005290	   -0.000662	   -0.005952	   -0.003076	   -0.003501	   -0.006577	   -0.000601	   -0.001822	   -0.002423	   -0.004923	   -0.001726	   -0.006649	   -0.011531	   -0.001549	   -0.013080	   -0.038231	   -0.008404	   -0.046636	   -0.040484	    0.005090	   -0.035394	   -0.019845	    0.012492	   -0.007352	   -0.006835	   -0.006100	   -0.012935	   -0.003591	   -0.001098	   -0.004689	    0.000190	   -0.008100	   -0.007910	   -0.003585	    0.000193	   -0.003391	   -0.028360	    0.003398	   -0.024962	   -0.052852	   -0.012379	   -0.065231	   -0.045351	    0.016799	   -0.028552	   -0.014232	    0.011485	   -0.002747	   -0.002872	   -0.000264	   -0.003135	   -0.000633	   -0.002566	   -0.003198	   -0.006945	    0.000098	   -0.006847	   -0.012715	    0.001805	   -0.010910	   -0.048043	   -0.011225	   -0.059268
     6.525	0	0	    0	   -0.032496	    0.013175	   -0.019321	   -0.006705	   -0.000418	   -0.007124	   -0.005264	   -0.003402	   -0.008666	   -0.002909	   -0.002158	   -0.005066	   -0.006857	   -0.002487	   -0.009344	   -0.014085	   -0.002648	   -0.016733	   -0.041774	   -0.012277	   -0.054052	   -0.041092	    0.005379	   -0.035712	   -0.020473	    0.011603	   -0.008870	   -0.009532	   -0.005833	   -0.015365	   -0.004973	   -0.001637	   -0.006611	   -0.003272	   -0.008376	   -0.011648	   -0.006606	   -0.000623	   -0.007228	   -0.030157	    0.000258	   -0.029898	   -0.055231	   -0.012910	   -0.068141	   -0.046404	    0.016971	   -0.029434	   -0.014821	    0.009512	   -0.005309	   -0.005879	   -0.000716	   -0.006595	   -0.004112	   -0.003115	   -0.007226	   -0.009673	   -0.001530	   -0.011203	   -0.015048	    0.000781	   -0.014266	   -0.051473	   -0.009997	   -0.061470
     6.600	0	0	    0	   -0.034074	    0.013362	   -0.020712	   -0.008969	   -0.000545	   -0.009514	   -0.006927	   -0.003412	   -0.010339	   -0.005397	   -0.002160	   -0.007557	   -0.008788	   -0.003106	   -0.011894	   -0.016301	   -0.002652	   -0.018953	   -0.047857	   -0.008638	   -0.056495	   -0.042094	    0.006794	   -0.035301	   -0.021591	    0.010832	   -0.010759	   -0.011392	   -0.006203	   -0.017595	   -0.007120	   -0.001474	   -0.008594	   -0.006438	   -0.008198	   -0.014636	   -0.009162	   -0.001367	   -0.010529	   -0.033400	    0.003926	   -0.029474	   -0.054386	   -0.015585	   -0.069971	   -0.047585	    0.016497	   -0.031088	   -0.015086	    0.006852	   -0.008233	   -0.007658	   -0.002193	   -0.009851	   -0.005887	   -0.004672	   -0.010558	   -0.013495	   -0.001047	   -0.014542	   -0.018985	    0.003113	   -0.015872	   -0.050612	   -0.011479	   -0.062091
     6.675	0	0	    0	   -0.034280	    0.012861	   -0.021419	   -0.010289	   -0.000375	   -0.010663	   -0.008864	   -0.003401	   -0.012265	   -0.007077	   -0.002752	   -0.009829	   -0.011027	   -0.003321	   -0.014348	   -0.019539	   -0.002481	   -0.022021	   -0.053121	   -0.005456	   -0.058578	   -0.043251	    0.006394	   -0.036857	   -0.023347	    0.011181	   -0.012165	   -0.013590	   -0.006051	   -0.019641	   -0.008679	   -0.001979	   -0.010658	   -0.007818	   -0.010467	   -0.018285	   -0.012077	   -0.002000	   -0.014077	   -0.041344	    0.006103	   -0.035241	   -0.056402	   -0.015111	   -0.071514	   -0.049132	    0.016983	   -0.032149	   -0.017644	    0.006622	   -0.011022	   -0.011569	   -0.002098	   -0.013667	   -0.009156	   -0.004857	   -0.014013	   -0.015183	   -0.003778	   -0.018960	   -0.019257	   -0.001055	   -0.020312	   -0.050493	   -0.014344	   -0.064837
     6.750	0	0	    0	   -0.035841	    0.013143	   -0.022698	   -0.011278	   -0.001241	   -0.012518	   -0.010354	   -0.003925	   -0.014278	   -0.008913	   -0.003187	   -0.012100	   -0.013284	   -0.003827	   -0.017111	   -0.020969	   -0.003943	   -0.024912	   -0.048303	   -0.014837	   -0.063141	   -0.045184	    0.007385	   -0.037799	   -0.024666	    0.011534	   -0.013132	   -0.015478	   -0.006405	   -0.021883	   -0.010532	   -0.002184	   -0.012716	   -0.010158	   -0.009864	   -0.020022	   -0.014784	   -0.002715	   -0.017499	   -0.037945	   -0.001585	   -0.039530	   -0.058187	   -0.015083	   -0.073270	   -0.050670	    0.017671	   -0.032998	   -0.020970	    0.009678	   -0.011292	   -0.013795	   -0.002760	   -0.016554	   -0.011685	   -0.005864	   -0.017549	   -0.018270	   -0.003086	   -0.021355	   -0.023777	    0.000307	   -0.023471	   -0.053261	   -0.013194	   -0.066455
     6.825	0	0	    0	   -0.037323	    0.013649	   -0.023674	   -0.013517	   -0.000744	   -0.014261	   -0.012119	   -0.004097	   -0.016216	   -0.011973	   -0.002589	   -0.014561	   -0.015602	   -0.003818	   -0.019421	   -0.023763	   -0.004164	   -0.027928	   -0.057156	   -0.008929	   -0.066085	   -0.046288	    0.007948	   -0.038340	   -0.026743	    0.011925	   -0.014817	   -0.017818	   -0.006062	   -0.023880	   -0.012848	   -0.002273	   -0.015121	   -0.012749	   -0.010682	   -0.023431	   -0.018931	   -0.002631	   -0.021562	   -0.045156	    0.005998	   -0.039157	   -0.059931	   -0.015126	   -0.075058	   -0.051541	    0.017527	   -0.034014	   -0.024066	    0.010249	   -0.013817	   -0.016035	   -0.003884	   -0.019920	   -0.014872	   -0.006321	   -0.021193	   -0.022911	   -0.002256	   -0.025167	   -0.025811	   -0.000654	   -0.026465	   -0.054824	   -0.013325	   -0.068149
     6.900	0	0	    0	   -0.033572	    0.013085	   -0.020488	   -0.014086	   -0.001366	   -0.015452	   -0.013553	   -0.004486	   -0.018039	   -0.005913	   -0.005219	   -0.011133	   -0.009245	   -0.005547	   -0.014792	   -0.023428	   -0.006587	   -0.030015	   -0.050218	   -0.015102	   -0.065319	   -0.041637	    0.007574	   -0.034063	   -0.027521	    0.011065	   -0.016456	   -0.016469	   -0.008822	   -0.025291	   -0.011933	   -0.004130	   -0.016063	   -0.003999	   -0.013171	   -0.017170	   -0.021374	   -0.004138	   -0.025513	   -0.040666	   -0.000173	   -0.040839	   -0.057052	   -0.017094	   -0.074147	   -0.052811	    0.017959	   -0.034851	   -0.024262	    0.008292	   -0.015970	   -0.012720	   -0.005989	   -0.018708	   -0.011722	   -0.009272	   -0.020994	   -0.025668	   -0.003998	   -0.029666	   -0.028502	   -0.001300	   -0.029802	   -0.052990	   -0.013937	   -0.066926
     6.975	0	0	    0	   -0.029865	    0.015439	   -0.014426	   -0.005427	   -0.001324	   -0.006751	   -0.005960	   -0.004943	   -0.010903	   -0.000797	   -0.001938	   -0.002735	   -0.003689	   -0.001968	   -0.005657	   -0.010821	   -0.004235	   -0.015056	   -0.039730	   -0.004207	   -0.043937	   -0.040409	    0.010783	   -0.029626	   -0.020777	    0.011975	   -0.008801	   -0.008371	   -0.006175	   -0.014546	   -0.004145	   -0.003658	   -0.007802	    0.003150	   -0.008763	   -0.005613	   -0.004933	   -0.003827	   -0.008761	   -0.026690	    0.003996	   -0.022695	   -0.053088	   -0.013732	   -0.066820	   -0.047009	    0.018212	   -0.028797	   -0.013010	    0.006962	   -0.006048	    0.001566	   -0.002578	   -0.001011	    0.003132	   -0.005047	   -0.001915	   -0.010269	   -0.002790	   -0.013059	   -0.012282	   -0.002209	   -0.014491	   -0.048418	   -0.011696	   -0.060114
     7.050	0	0	    0	   -0.028483	    0.016400	   -0.012083	   -0.002367	   -0.000468	   -0.002835	   -0.003294	   -0.003527	   -0.006821	    0.002732	   -0.001974	    0.000759	   -0.001063	   -0.001654	   -0.002717	   -0.009034	   -0.000355	   -0.009389	   -0.037640	   -0.000064	   -0.037704	   -0.038754	    0.010652	   -0.028102	   -0.018132	    0.013575	   -0.004557	   -0.004704	   -0.005531	   -0.010236	   -0.001669	   -0.001992	   -0.003661	    0.005862	   -0.007693	   -0.001830	    0.000713	    0.000441	    0.001154	   -0.021701	    0.003623	   -0.018078	   -0.050054	   -0.013409	   -0.063464	   -0.046406	    0.020426	   -0.025980	   -0.009331	    0.010612	    0.001281	    0.005027	   -0.000787	    0.004240	    0.006682	   -0.002631	    0.004050	   -0.002041	   -0.000039	   -0.002080	   -0.006190	    0.000479	   -0.005711	   -0.048578	   -0.009930	   -0.058509
     7.125	0	0	    0	   -0.028544	    0.015907	   -0.012637	   -0.001436	    0.000096	   -0.001341	   -0.001513	   -0.003090	   -0.004602	    0.002820	   -0.000921	    0.001899	   -0.001673	   -0.000408	   -0.002081	   -0.006840	    0.000324	   -0.006516	   -0.038024	   -0.001896	   -0.039920	   -0.039383	    0.011527	   -0.027856	   -0.015951	    0.012583	   -0.003368	   -0.003417	   -0.005284	   -0.008701	   -0.000411	   -0.001108	   -0.001519	    0.004975	   -0.007163	   -0.002187	    0.003022	    0.000975	    0.003997	   -0.023111	    0.009382	   -0.013729	   -0.051834	   -0.012505	   -0.064339	   -0.045572	    0.020855	   -0.024717	   -0.008203	    0.010275	    0.002073	    0.005813	    0.000016	    0.005830	    0.007631	   -0.001723	    0.005908	    0.000041	    0.000316	    0.000356	   -0.004385	    0.002965	   -0.001420	   -0.046837	   -0.009753	   -0.056590
     7.200	0	0	    0	   -0.027803	    0.015486	   -0.012317	   -0.001065	   -0.000518	   -0.001583	   -0.002011	   -0.002360	   -0.004371	    0.002974	   -0.001051	    0.001923	   -0.000729	   -0.001191	   -0.001920	   -0.006820	   -0.000458	   -0.007278	   -0.034290	   -0.007497	   -0.041787	   -0.040317	    0.012223	   -0.028094	   -0.016288	    0.012923	   -0.003365	   -0.004067	   -0.005040	   -0.009107	   -0.000773	   -0.000862	   -0.001635	    0.004305	   -0.006875	   -0.002570	    0.002365	    0.001504	    0.003869	   -0.024147	    0.005297	   -0.018849	   -0.052894	   -0.012098	   -0.064992	   -0.045762	    0.021509	   -0.024253	   -0.008950	    0.010830	    0.001880	    0.005104	   -0.000314	    0.004790	    0.007054	   -0.002517	    0.004537	   -0.001209	    0.000991	   -0.000218	   -0.005623	    0.002741	   -0.002882	   -0.048691	   -0.009094	   -0.057785
     7.275	0	0	    0	   -0.028300	    0.016117	   -0.012183	   -0.001253	    0.000836	   -0.000417	   -0.000890	   -0.002418	   -0.003308	    0.003138	   -0.000771	    0.002367	   -0.000962	   -0.000900	   -0.001862	   -0.005759	   -0.000581	   -0.006339	   -0.037659	   -0.004687	   -0.042346	   -0.040285	    0.011961	   -0.028324	   -0.015446	    0.013170	   -0.002276	   -0.003971	   -0.004256	   -0.008226	    0.000227	   -0.000700	   -0.000473	    0.003663	   -0.006858	   -0.003196	    0.003370	    0.000410	    0.003780	   -0.025681	    0.006795	   -0.018886	   -0.052553	   -0.012310	   -0.064863	   -0.045176	    0.021646	   -0.023529	   -0.006379	    0.009280	    0.002902	    0.005746	   -0.000516	    0.005230	    0.007006	   -0.002001	    0.005005	    0.000561	   -0.001595	   -0.001035	   -0.003893	   -0.000073	   -0.003966	   -0.048284	   -0.009944	   -0.058229
     7.350	0	0	    0	   -0.028763	    0.015816	   -0.012948	   -0.001452	    0.000237	   -0.001215	   -0.001733	   -0.002224	   -0.003957	    0.001842	   -0.001368	    0.000474	   -0.001818	   -0.001821	   -0.003639	   -0.006567	   -0.001391	   -0.007958	   -0.040377	   -0.004650	   -0.045027	   -0.040921	    0.011763	   -0.029158	   -0.016532	    0.013615	   -0.002916	   -0.005838	   -0.003770	   -0.009609	   -0.000993	   -0.000387	   -0.001380	    0.003868	   -0.007927	   -0.004059	    0.002032	    0.000266	    0.002298	   -0.025331	    0.004328	   -0.021003	   -0.053992	   -0.011696	   -0.065688	   -0.045816	    0.022627	   -0.023190	   -0.009006	    0.011043	    0.002037	    0.003262	   -0.000858	    0.002404	    0.004953	   -0.002321	    0.002632	   -0.002127	    0.001015	   -0.001112	   -0.005692	   -0.000343	   -0.006035	   -0.046637	   -0.011810	   -0.058447
     7.425	0	0	    0	   -0.029310	    0.014787	   -0.014523	   -0.003380	    0.000594	   -0.002786	   -0.003458	   -0.001888	   -0.005346	   -0.000400	   -0.001311	   -0.001711	   -0.004122	   -0.001899	   -0.006021	   -0.009147	   -0.000840	   -0.009987	   -0.044357	   -0.003816	   -0.048172	   -0.042376	    0.012011	   -0.030366	   -0.018058	    0.013812	   -0.004247	   -0.007394	   -0.004293	   -0.011687	   -0.001762	   -0.001444	   -0.003205	    0.000433	   -0.008116	   -0.007684	   -0.000341	   -0.000492	   -0.000833	   -0.029764	    0.006752	   -0.023012	   -0.053915	   -0.013475	   -0.067390	   -0.046827	    0.023048	   -0.023779	   -0.009575	    0.009385	   -0.000190	    0.000718	   -0.001634	   -0.000916	    0.002170	   -0.003101	   -0.000931	   -0.005256	    0.000665	   -0.004591	   -0.009936	    0.001586	   -0.008350	   -0.050328	   -0.009190	   -0.059518
     7.500	0	0	    0	   -0.031500	    0.016521	   -0.014979	   -0.003591	   -0.000273	   -0.003864	   -0.004754	   -0.002428	   -0.007182	   -0.003335	   -0.000908	   -0.004244	   -0.006180	   -0.002003	   -0.008183	   -0.011364	   -0.001262	   -0.012626	   -0.047696	   -0.003336	   -0.051031	   -0.043050	    0.011838	   -0.031213	   -0.017800	    0.012361	   -0.005440	   -0.008910	   -0.004690	   -0.013599	   -0.004068	   -0.001071	   -0.005139	   -0.003120	   -0.007586	   -0.010706	   -0.003250	   -0.000960	   -0.004210	   -0.034094	    0.007188	   -0.026905	   -0.055793	   -0.013116	   -0.068909	   -0.047817	    0.023425	   -0.024392	   -0.010587	    0.008096	   -0.002491	   -0.002100	   -0.002040	   -0.004140	   -0.001149	   -0.003514	   -0.004663	   -0.006312	   -0.002066	   -0.008378	   -0.009911	   -0.001659	   -0.011570	   -0.051324	   -0.010057	   -0.061381
     7.575	0	0	    0	   -0.032015	    0.015306	   -0.016709	   -0.005442	   -0.000190	   -0.005633	   -0.006485	   -0.002721	   -0.009207	   -0.005240	   -0.001019	   -0.006259	   -0.008370	   -0.002335	   -0.010705	   -0.012603	   -0.003001	   -0.015603	   -0.047096	   -0.007947	   -0.055042	   -0.044824	    0.013124	   -0.031700	   -0.019294	    0.012303	   -0.006991	   -0.009909	   -0.005608	   -0.015517	   -0.006429	   -0.000902	   -0.007331	   -0.006072	   -0.007571	   -0.013643	   -0.006401	   -0.000939	   -0.007341	   -0.033831	    0.004120	   -0.029711	   -0.058083	   -0.012274	   -0.070357	   -0.048374	    0.023477	   -0.024896	   -0.012823	    0.008614	   -0.004209	   -0.004754	   -0.002905	   -0.007659	   -0.004192	   -0.004202	   -0.008393	   -0.009949	   -0.002105	   -0.012053	   -0.014430	    0.000069	   -0.014361	   -0.055133	   -0.007750	   -0.062883
     7.650	0	0	    0	   -0.034182	    0.015922	   -0.018260	   -0.006735	   -0.000600	   -0.007336	   -0.007379	   -0.003512	   -0.010892	   -0.007450	   -0.000639	   -0.008089	   -0.011161	   -0.002113	   -0.013274	   -0.015107	   -0.003065	   -0.018173	   -0.048952	   -0.008850	   -0.057801	   -0.046327	    0.013662	   -0.032665	   -0.021345	    0.013019	   -0.008326	   -0.012140	   -0.005803	   -0.017943	   -0.008366	   -0.000901	   -0.009267	   -0.008251	   -0.007751	   -0.016003	   -0.009528	   -0.001800	   -0.011328	   -0.036218	    0.002052	   -0.034166	   -0.060107	   -0.011950	   -0.072058	   -0.049887	    0.023915	   -0.025972	   -0.016615	    0.009195	   -0.007421	   -0.008350	   -0.003040	   -0.011389	   -0.007132	   -0.004833	   -0.011966	   -0.015079	   -0.000736	   -0.015815	   -0.018736	   -0.000574	   -0.019310	   -0.056160	   -0.009428	   -0.065588
     7.725	0	0	    0	   -0.035611	    0.015685	   -0.019926	   -0.008127	   -0.001012	   -0.009139	   -0.009683	   -0.003834	   -0.013517	   -0.009992	   -0.001262	   -0.011254	   -0.013034	   -0.003074	   -0.016108	   -0.016949	   -0.004777	   -0.021726	   -0.049487	   -0.011984	   -0.061471	   -0.047280	    0.013552	   -0.033728	   -0.022644	    0.012467	   -0.010176	   -0.014368	   -0.005831	   -0.020199	   -0.010771	   -0.001052	   -0.011823	   -0.011688	   -0.008411	   -0.020099	   -0.011768	   -0.003457	   -0.015225	   -0.041321	    0.001950	   -0.039371	   -0.062464	   -0.011515	   -0.073979	   -0.051025	    0.024395	   -0.026631	   -0.016453	    0.006404	   -0.010049	   -0.011068	   -0.004069	   -0.015137	   -0.010563	   -0.005602	   -0.016165	   -0.016794	   -0.003581	   -0.020375	   -0.018855	   -0.003764	   -0.022619	   -0.057526	   -0.011532	   -0.069057
     7.800	0	0	    0	   -0.036499	    0.014230	   -0.022269	   -0.010355	   -0.000964	   -0.011319	   -0.011932	   -0.003570	   -0.015502	   -0.011959	   -0.002344	   -0.014303	   -0.015097	   -0.004110	   -0.019207	   -0.021061	   -0.004658	   -0.025719	   -0.054121	   -0.011879	   -0.066000	   -0.048838	    0.013546	   -0.035292	   -0.023705	    0.011840	   -0.011864	   -0.015955	   -0.006720	   -0.022675	   -0.011871	   -0.002128	   -0.013999	   -0.014160	   -0.010034	   -0.024195	   -0.015302	   -0.003732	   -0.019034	   -0.041448	    0.000439	   -0.041009	   -0.063354	   -0.013721	   -0.077075	   -0.052152	    0.024550	   -0.027602	   -0.018830	    0.006839	   -0.011992	   -0.015056	   -0.004023	   -0.019079	   -0.012886	   -0.006853	   -0.019739	   -0.021412	   -0.002630	   -0.024043	   -0.023457	   -0.002365	   -0.025822	   -0.060535	   -0.009559	   -0.070094
     7.875	0	0	    0	   -0.034321	    0.014346	   -0.019975	   -0.011912	   -0.001161	   -0.013073	   -0.014136	   -0.003684	   -0.017820	   -0.008919	   -0.004442	   -0.013360	   -0.011089	   -0.005681	   -0.016770	   -0.022051	   -0.006616	   -0.028667	   -0.059133	   -0.009612	   -0.068746	   -0.045954	    0.013850	   -0.032104	   -0.026138	    0.013009	   -0.013128	   -0.017142	   -0.008006	   -0.025148	   -0.013143	   -0.002781	   -0.015924	   -0.008200	   -0.012722	   -0.020922	   -0.019106	   -0.004185	   -0.023291	   -0.043165	    0.000761	   -0.042405	   -0.060740	   -0.016022	   -0.076762	   -0.053731	    0.025158	   -0.028572	   -0.023234	    0.008552	   -0.014682	   -0.012072	   -0.007815	   -0.019887	   -0.012687	   -0.009169	   -0.021856	   -0.025204	   -0.003733	   -0.028937	   -0.025879	   -0.003687	   -0.029566	   -0.056563	   -0.013812	   -0.070375
     7.950	0	0	    0	   -0.029710	    0.015492	   -0.014218	   -0.002107	   -0.002638	   -0.004745	   -0.006179	   -0.005211	   -0.011390	   -0.001390	   -0.002122	   -0.003512	   -0.004633	   -0.001739	   -0.006373	   -0.008875	   -0.005769	   -0.014644	   -0.035161	   -0.011827	   -0.046988	   -0.042562	    0.016177	   -0.026385	   -0.019323	    0.012582	   -0.006741	   -0.005991	   -0.008258	   -0.014250	   -0.004639	   -0.003614	   -0.008253	    0.000216	   -0.007126	   -0.006910	   -0.002414	   -0.006970	   -0.009384	   -0.022710	   -0.001089	   -0.023799	   -0.056256	   -0.013790	   -0.070046	   -0.047322	    0.024547	   -0.022776	   -0.012148	    0.007282	   -0.004867	    0.003905	   -0.005568	   -0.001663	    0.003789	   -0.006548	   -0.002759	   -0.008289	   -0.006919	   -0.015208	   -0.010360	   -0.004929	   -0.015290	   -0.051791	   -0.010263	   -0.062054
     8.025	0	0	    0	   -0.028576	    0.016205	   -0.012371	   -0.000604	   -0.000113	   -0.000717	   -0.003844	   -0.002689	   -0.006533	    0.001028	   -0.000974	    0.000053	   -0.001474	   -0.002362	   -0.003835	   -0.005952	   -0.002521	   -0.008473	   -0.037922	   -0.005090	   -0.043012	   -0.040291	    0.015579	   -0.024712	   -0.015873	    0.013966	   -0.001907	   -0.004000	   -0.005202	   -0.009202	   -0.001785	   -0.001906	   -0.003691	    0.004786	   -0.007688	   -0.002903	    0.003872	   -0.001985	    0.001887	   -0.022616	    0.004346	   -0.018270	   -0.056412	   -0.011386	   -0.067798	   -0.045756	    0.026649	   -0.019107	   -0.006163	    0.007541	    0.001378	    0.006664	   -0.002404	    0.004260	    0.007491	   -0.003072	    0.004419	    0.000430	   -0.002334	   -0.001905	   -0.003051	   -0.001935	   -0.004986	   -0.052020	   -0.008244	   -0.060264
     8.100	0	0	    0	   -0.027428	    0.015113	   -0.012314	    0.001958	   -0.001072	    0.000886	   -0.001715	   -0.002979	   -0.004693	    0.001929	   -0.001066	    0.000864	   -0.000704	   -0.001885	   -0.002589	   -0.003105	   -0.001933	   -0.005038	   -0.036632	   -0.008293	   -0.044924	   -0.041165	    0.016650	   -0.024515	   -0.013949	    0.013256	   -0.000693	   -0.002937	   -0.004774	   -0.007711	   -0.000360	   -0.001238	   -0.001598	    0.004430	   -0.007341	   -0.002911	    0.006092	   -0.000793	    0.005299	   -0.024674	    0.005509	   -0.019166	   -0.055843	   -0.010823	   -0.066666	   -0.045415	    0.027298	   -0.018117	   -0.004720	    0.008292	    0.003573	    0.007942	   -0.001936	    0.006006	    0.008964	   -0.002695	    0.006268	    0.000960	    0.000459	    0.001419	   -0.003433	    0.001235	   -0.002198	   -0.051219	   -0.008334	   -0.059553
     8.175	0	0	    0	   -0.027029	    0.015189	   -0.011840	    0.001883	   -0.000588	    0.001295	   -0.000720	   -0.003044	   -0.003764	    0.002622	   -0.001037	    0.001585	   -0.000701	   -0.001533	   -0.002234	   -0.002088	   -0.003111	   -0.005199	   -0.037506	   -0.007217	   -0.044723	   -0.041333	    0.017876	   -0.023457	   -0.014663	    0.014277	   -0.000386	   -0.002589	   -0.005185	   -0.007774	   -0.000016	   -0.001273	   -0.001289	    0.005048	   -0.008050	   -0.003003	    0.005023	   -0.000370	    0.004654	   -0.024316	    0.004840	   -0.019476	   -0.057541	   -0.009767	   -0.067308	   -0.045532	    0.028582	   -0.016950	   -0.004896	    0.008156	    0.003260	    0.006982	   -0.001941	    0.005041	    0.008170	   -0.003022	    0.005148	    0.000263	   -0.000231	    0.000032	   -0.002537	   -0.000561	   -0.003098	   -0.051665	   -0.007906	   -0.059571
     8.250	0	0	    0	   -0.029087	    0.017004	   -0.012082	    0.002913	   -0.001189	    0.001724	   -0.000574	   -0.002632	   -0.003205	    0.001221	    0.000368	    0.001589	   -0.000731	   -0.001629	   -0.002360	   -0.001434	   -0.003669	   -0.005103	   -0.036567	   -0.008412	   -0.044979	   -0.042030	    0.018766	   -0.023264	   -0.014718	    0.014742	    0.000023	   -0.001870	   -0.005660	   -0.007531	    0.000150	   -0.000953	   -0.000802	    0.003901	   -0.007160	   -0.003259	    0.005001	   -0.000217	    0.004784	   -0.020397	    0.001901	   -0.018496	   -0.054980	   -0.011997	   -0.066977	   -0.045469	    0.029196	   -0.016272	   -0.006510	    0.010524	    0.004014	    0.007261	   -0.002435	    0.004826	    0.008325	   -0.002879	    0.005446	   -0.001465	    0.002445	    0.000981	   -0.005173	    0.001841	   -0.003332	   -0.051483	   -0.007790	   -0.059273
     8.325	0	0	    0	   -0.029193	    0.015521	   -0.013672	    0.002030	   -0.000877	    0.001153	   -0.001144	   -0.002407	   -0.003550	   -0.000886	    0.000130	   -0.000757	   -0.002387	   -0.001838	   -0.004225	   -0.003589	   -0.002928	   -0.006517	   -0.039033	   -0.007455	   -0.046488	   -0.043031	    0.018676	   -0.024355	   -0.014865	    0.014168	   -0.000697	   -0.003110	   -0.005859	   -0.008968	   -0.000906	   -0.000881	   -0.001787	    0.001684	   -0.007802	   -0.006118	    0.003967	   -0.000601	    0.003366	   -0.027071	    0.004503	   -0.022568	   -0.058459	   -0.009347	   -0.067805	   -0.045585	    0.029672	   -0.015913	   -0.007031	    0.008968	    0.001937	    0.004605	   -0.002658	    0.001946	    0.005490	   -0.002623	    0.002867	   -0.000748	   -0.000599	   -0.001347	   -0.005502	   -0.000204	   -0.005707	   -0.053673	   -0.006525	   -0.060198
     8.400	0	0	    0	   -0.030424	    0.015936	   -0.014488	    0.000081	   -0.000086	   -0.000005	   -0.002622	   -0.002009	   -0.004630	   -0.002384	    0.000279	   -0.002105	   -0.003979	   -0.001955	   -0.005934	   -0.005942	   -0.002053	   -0.007995	   -0.045315	   -0.005164	   -0.050479	   -0.043418	    0.018537	   -0.024881	   -0.016650	    0.015258	   -0.001392	   -0.006042	   -0.005013	   -0.011054	   -0.002296	   -0.001137	   -0.003433	   -0.001801	   -0.006833	   -0.008634	    0.000612	    0.000074	    0.000685	   -0.030522	    0.005968	   -0.024554	   -0.058826	   -0.010873	   -0.069699	   -0.046524	    0.030278	   -0.016246	   -0.009888	    0.009794	   -0.000094	    0.002520	   -0.003902	   -0.001382	    0.002788	   -0.003319	   -0.000531	   -0.005657	    0.001868	   -0.003790	   -0.008525	   -0.000848	   -0.009373	   -0.055299	   -0.007726	   -0.063025
     8.475	0	0	    0	   -0.031217	    0.014508	   -0.016709	   -0.001777	   -0.000210	   -0.001987	   -0.004335	   -0.002220	   -0.006555	   -0.004041	   -0.000750	   -0.004791	   -0.006229	   -0.002251	   -0.008480	   -0.008225	   -0.002799	   -0.011024	   -0.048296	   -0.005789	   -0.054085	   -0.044313	    0.018860	   -0.025453	   -0.017308	    0.013927	   -0.003381	   -0.006739	   -0.005973	   -0.012712	   -0.004588	   -0.000768	   -0.005356	   -0.003691	   -0.007905	   -0.011595	   -0.001739	   -0.001431	   -0.003169	   -0.031916	    0.003539	   -0.028377	   -0.062497	   -0.008921	   -0.071417	   -0.047639	    0.030571	   -0.017068	   -0.010449	    0.008603	   -0.001847	   -0.000466	   -0.003919	   -0.004385	    0.000018	   -0.004295	   -0.004278	   -0.007903	   -0.000971	   -0.008874	   -0.012612	   -0.000029	   -0.012641	   -0.055896	   -0.007487	   -0.063383
     8.550	0	0	    0	   -0.033305	    0.015641	   -0.017664	   -0.002683	   -0.000565	   -0.003249	   -0.005615	   -0.002821	   -0.008436	   -0.006572	   -0.000531	   -0.007103	   -0.008324	   -0.002619	   -0.010943	   -0.009926	   -0.003713	   -0.013639	   -0.047781	   -0.008764	   -0.056545	   -0.046152	    0.020171	   -0.025981	   -0.018572	    0.014302	   -0.004270	   -0.008734	   -0.006204	   -0.014937	   -0.005792	   -0.001518	   -0.007309	   -0.006787	   -0.007858	   -0.014645	   -0.004766	   -0.001554	   -0.006320	   -0.033191	    0.001742	   -0.031449	   -0.061360	   -0.010741	   -0.072101	   -0.048566	    0.030821	   -0.017745	   -0.012308	    0.007976	   -0.004332	   -0.002890	   -0.005062	   -0.007952	   -0.002706	   -0.005050	   -0.007756	   -0.010636	   -0.001066	   -0.011703	   -0.015524	   -0.000406	   -0.015930	   -0.055560	   -0.009771	   -0.065331
     8.625	0	0	    0	   -0.034081	    0.014044	   -0.020038	   -0.004348	   -0.000850	   -0.005198	   -0.008284	   -0.002034	   -0.010318	   -0.008090	   -0.001332	   -0.009422	   -0.009975	   -0.003388	   -0.013363	   -0.011950	   -0.004199	   -0.016149	   -0.051826	   -0.009337	   -0.061163	   -0.046216	    0.019436	   -0.026780	   -0.020300	    0.014219	   -0.006080	   -0.010455	   -0.006427	   -0.016883	   -0.007060	   -0.002268	   -0.009328	   -0.008667	   -0.008867	   -0.017534	   -0.006882	   -0.003005	   -0.009887	   -0.037546	    0.002724	   -0.034822	   -0.063018	   -0.012076	   -0.075094	   -0.049434	    0.030948	   -0.018486	   -0.014703	    0.008124	   -0.006579	   -0.005664	   -0.005614	   -0.011278	   -0.005234	   -0.006213	   -0.011447	   -0.012720	   -0.003112	   -0.015832	   -0.016332	   -0.002730	   -0.019062	   -0.058797	   -0.009018	   -0.067815
     8.700	0	0	    0	   -0.036201	    0.014778	   -0.021423	   -0.006441	   -0.000812	   -0.007253	   -0.009934	   -0.002243	   -0.012177	   -0.010642	   -0.001138	   -0.011780	   -0.012799	   -0.003331	   -0.016129	   -0.015019	   -0.004267	   -0.019286	   -0.055065	   -0.008273	   -0.063338	   -0.048084	    0.020098	   -0.027986	   -0.021809	    0.014554	   -0.007255	   -0.012980	   -0.006094	   -0.019074	   -0.009653	   -0.001937	   -0.011591	   -0.012883	   -0.007847	   -0.020730	   -0.010267	   -0.003098	   -0.013365	   -0.042710	    0.004536	   -0.038175	   -0.065822	   -0.010608	   -0.076430	   -0.050389	    0.030552	   -0.019836	   -0.016072	    0.007899	   -0.008173	   -0.008593	   -0.006217	   -0.014809	   -0.008806	   -0.006327	   -0.015133	   -0.015472	   -0.003891	   -0.019363	   -0.020091	   -0.002297	   -0.022388	   -0.061776	   -0.006724	   -0.068500
     8.775	0	0	    0	   -0.037789	    0.015049	   -0.022740	   -0.007757	   -0.001171	   -0.008928	   -0.011717	   -0.002624	   -0.014340	   -0.013264	   -0.000800	   -0.014065	   -0.014539	   -0.003966	   -0.018505	   -0.016969	   -0.005579	   -0.022548	   -0.056462	   -0.008509	   -0.064971	   -0.049751	    0.021510	   -0.028241	   -0.022738	    0.013814	   -0.008924	   -0.014750	   -0.006641	   -0.021392	   -0.011363	   -0.002658	   -0.014020	   -0.015244	   -0.009112	   -0.024357	   -0.013194	   -0.004258	   -0.017452	   -0.037647	   -0.000856	   -0.038504	   -0.065659	   -0.012137	   -0.077796	   -0.051487	    0.031365	   -0.020122	   -0.019095	    0.008609	   -0.010486	   -0.011019	   -0.007285	   -0.018304	   -0.011188	   -0.007468	   -0.018656	   -0.018861	   -0.004896	   -0.023757	   -0.024073	   -0.001634	   -0.025707	   -0.061242	   -0.008498	   -0.069740
     8.850	0	0	    0	   -0.035101	    0.014308	   -0.020793	   -0.009071	   -0.001643	   -0.010714	   -0.013757	   -0.002830	   -0.016587	   -0.009844	   -0.003520	   -0.013364	   -0.010056	   -0.006561	   -0.016617	   -0.019639	   -0.007111	   -0.026750	   -0.057365	   -0.010674	   -0.068039	   -0.045619	    0.019796	   -0.025822	   -0.025978	    0.015791	   -0.010187	   -0.016238	   -0.008041	   -0.024279	   -0.012519	   -0.003306	   -0.015825	   -0.008935	   -0.012260	   -0.021196	   -0.016756	   -0.005088	   -0.021844	   -0.043110	   -0.000609	   -0.043719	   -0.065349	   -0.012205	   -0.077554	   -0.052821	    0.031594	   -0.021226	   -0.022006	    0.008816	   -0.013191	   -0.010066	   -0.009425	   -0.019491	   -0.011449	   -0.009577	   -0.021025	   -0.023618	   -0.004329	   -0.027947	   -0.027030	   -0.002786	   -0.029816	   -0.061914	   -0.009624	   -0.071538
     8.925	0	0	    0	   -0.030214	    0.015413	   -0.014801	   -0.001023	   -0.001936	   -0.002960	   -0.006144	   -0.004698	   -0.010842	   -0.002660	   -0.001563	   -0.004223	   -0.003118	   -0.003565	   -0.006683	   -0.007035	   -0.006675	   -0.013710	   -0.041686	   -0.006895	   -0.048580	   -0.041879	    0.022100	   -0.019779	   -0.018965	    0.014618	   -0.004347	   -0.006325	   -0.007886	   -0.014211	   -0.004743	   -0.003771	   -0.008514	    0.000677	   -0.008832	   -0.008155	   -0.002429	   -0.006621	   -0.009050	   -0.028501	    0.003101	   -0.025399	   -0.061200	   -0.011067	   -0.072267	   -0.047201	    0.031492	   -0.015709	   -0.013563	    0.007200	   -0.006363	    0.004348	   -0.007139	   -0.002791	    0.004349	   -0.006599	   -0.002250	   -0.008250	   -0.006583	   -0.014833	   -0.012378	   -0.004333	   -0.016712	   -0.057107	   -0.006694	   -0.063801
     9.000	0	0	    0	   -0.029749	    0.016691	   -0.013058	    0.001822	   -0.000912	    0.000910	   -0.002346	   -0.003488	   -0.005834	   -0.000907	    0.000250	   -0.000657	   -0.001689	   -0.002101	   -0.003791	   -0.003146	   -0.002928	   -0.006074	   -0.038046	   -0.006117	   -0.044163	   -0.041691	    0.023715	   -0.017976	   -0.015636	    0.016074	    0.000438	   -0.002697	   -0.006521	   -0.009218	   -0.001465	   -0.002522	   -0.003987	    0.001426	   -0.005908	   -0.004482	    0.004819	   -0.001941	    0.002878	   -0.025175	    0.005878	   -0.019297	   -0.060476	   -0.010456	   -0.070933	   -0.045432	    0.033754	   -0.011679	   -0.006929	    0.009305	    0.002376	    0.008034	   -0.004381	    0.003653	    0.008302	   -0.003951	    0.004351	    0.000071	   -0.002358	   -0.002287	   -0.006583	    0.001234	   -0.005349	   -0.054916	   -0.006963	   -0.061878
     9.075	0	0	    0	   -0.029274	    0.016826	   -0.012448	    0.002593	   -0.000204	    0.002389	   -0.001251	   -0.002611	   -0.003861	   -0.000317	   -0.000067	   -0.000384	   -0.001851	   -0.001240	   -0.003091	   -0.003332	   -0.000890	   -0.004221	   -0.043022	   -0.001272	   -0.044295	   -0.042360	    0.024903	   -0.017458	   -0.014929	    0.016533	    0.001604	   -0.002290	   -0.005682	   -0.007972	   -0.000220	   -0.002024	   -0.002244	    0.000789	   -0.005895	   -0.005105	    0.006718	   -0.001753	    0.004966	   -0.023672	    0.004770	   -0.018902	   -0.060837	   -0.008887	   -0.069724	   -0.044787	    0.034819	   -0.009969	   -0.006400	    0.009121	    0.002720	    0.008969	   -0.004205	    0.004764	    0.009361	   -0.003557	    0.005804	    0.000285	   -0.000930	   -0.000646	   -0.003111	   -0.000977	   -0.004088	   -0.055968	   -0.005486	   -0.061454
     9.150	0	0	    0	   -0.029001	    0.015643	   -0.013358	    0.002321	   -0.000480	    0.001841	   -0.000724	   -0.002685	   -0.003409	    0.000167	    0.000012	    0.000178	   -0.000370	   -0.002707	   -0.003076	   -0.002848	   -0.001858	   -0.004706	   -0.043979	   -0.002892	   -0.046871	   -0.040396	    0.023782	   -0.016614	   -0.014519	    0.015960	    0.001441	   -0.002839	   -0.006005	   -0.008843	   -0.000019	   -0.001772	   -0.001791	    0.003073	   -0.007669	   -0.004596	    0.006620	   -0.001914	    0.004706	   -0.024883	    0.005929	   -0.018954	   -0.059451	   -0.010359	   -0.069810	   -0.044325	    0.034902	   -0.009423	   -0.006422	    0.007821	    0.001399	    0.007955	   -0.004443	    0.003512	    0.008821	   -0.004187	    0.004633	    0.000761	   -0.001411	   -0.000650	   -0.004909	    0.000589	   -0.004320	   -0.053348	   -0.007067	   -0.060415
     9.225	0	0	    0	   -0.030075	    0.015962	   -0.014113	    0.002257	   -0.000637	    0.001620	   -0.001006	   -0.002245	   -0.003250	   -0.000801	    0.001009	    0.000207	   -0.001397	   -0.002115	   -0.003512	   -0.002053	   -0.003124	   -0.005177	   -0.041627	   -0.006258	   -0.047885	   -0.042565	    0.026071	   -0.016494	   -0.013909	    0.015007	    0.001098	   -0.002111	   -0.005881	   -0.007992	   -0.000045	   -0.001376	   -0.001420	    0.000577	   -0.005656	   -0.005079	    0.006510	   -0.002376	    0.004134	   -0.024648	    0.002842	   -0.021806	   -0.060103	   -0.010080	   -0.070183	   -0.043959	    0.035026	   -0.008933	   -0.005780	    0.008664	    0.002884	    0.007963	   -0.004132	    0.003831	    0.008763	   -0.004047	    0.004715	    0.000678	   -0.002099	   -0.001422	   -0.004785	   -0.000541	   -0.005326	   -0.055781	   -0.005225	   -0.061005
     9.300	0	0	    0	   -0.030740	    0.015917	   -0.014823	    0.002347	   -0.001382	    0.000966	   -0.000586	   -0.003291	   -0.003877	   -0.002585	    0.001405	   -0.001180	   -0.002377	   -0.002486	   -0.004862	   -0.001655	   -0.003996	   -0.005651	   -0.039283	   -0.010609	   -0.049891	   -0.042304	    0.025398	   -0.016906	   -0.016411	    0.017815	    0.001404	   -0.003635	   -0.005883	   -0.009518	   -0.000521	   -0.001646	   -0.002167	   -0.000050	   -0.007592	   -0.007643	    0.005247	   -0.002085	    0.003162	   -0.028669	    0.004915	   -0.023754	   -0.062322	   -0.008802	   -0.071123	   -0.045200	    0.036439	   -0.008761	   -0.008811	    0.010049	    0.001238	    0.005729	   -0.004657	    0.001072	    0.006096	   -0.004145	    0.001951	   -0.001970	   -0.000625	   -0.002596	   -0.007840	    0.002290	   -0.005550	   -0.056443	   -0.005837	   -0.062280
     9.375	0	0	    0	   -0.031385	    0.015134	   -0.016250	   -0.000215	   -0.000403	   -0.000619	   -0.003305	   -0.002409	   -0.005713	   -0.003383	   -0.000214	   -0.003597	   -0.004523	   -0.002760	   -0.007283	   -0.004595	   -0.003534	   -0.008129	   -0.044087	   -0.009213	   -0.053299	   -0.043208	    0.025223	   -0.017986	   -0.016327	    0.015683	   -0.000644	   -0.005463	   -0.006361	   -0.011825	   -0.001699	   -0.002411	   -0.004111	   -0.002938	   -0.007063	   -0.010002	    0.001415	   -0.001244	    0.000171	   -0.033150	    0.005607	   -0.027543	   -0.060411	   -0.011811	   -0.072222	   -0.045859	    0.036520	   -0.009339	   -0.009589	    0.008318	   -0.001271	    0.004034	   -0.006291	   -0.002257	    0.004147	   -0.005510	   -0.001363	   -0.006157	    0.000517	   -0.005641	   -0.009591	   -0.001635	   -0.011226	   -0.057277	   -0.006917	   -0.064194
     9.450	0	0	    0	   -0.033171	    0.015521	   -0.017650	   -0.000863	   -0.001989	   -0.002852	   -0.004367	   -0.002686	   -0.007053	   -0.005481	    0.000040	   -0.005441	   -0.006526	   -0.003132	   -0.009659	   -0.007182	   -0.003805	   -0.010987	   -0.047064	   -0.009205	   -0.056269	   -0.044422	    0.025663	   -0.018759	   -0.018581	    0.016559	   -0.002023	   -0.006939	   -0.006732	   -0.013670	   -0.003861	   -0.002120	   -0.005980	   -0.006202	   -0.007392	   -0.013594	   -0.000849	   -0.002774	   -0.003622	   -0.035185	    0.005813	   -0.029372	   -0.062841	   -0.011307	   -0.074149	   -0.047401	    0.037318	   -0.010083	   -0.009748	    0.006605	   -0.003143	    0.000822	   -0.006517	   -0.005696	    0.000826	   -0.006141	   -0.005315	   -0.007741	   -0.002623	   -0.010364	   -0.011871	   -0.001831	   -0.013703	   -0.057054	   -0.008373	   -0.065426
     9.525	0	0	    0	   -0.034839	    0.015991	   -0.018848	   -0.003714	   -0.000224	   -0.003938	   -0.006233	   -0.002896	   -0.009128	   -0.007360	   -0.000896	   -0.008256	   -0.008399	   -0.003643	   -0.012042	   -0.009908	   -0.004482	   -0.014390	   -0.053294	   -0.005735	   -0.059029	   -0.045097	    0.025466	   -0.019631	   -0.019985	    0.016428	   -0.003557	   -0.009903	   -0.006305	   -0.016208	   -0.005489	   -0.002537	   -0.008026	   -0.009069	   -0.007716	   -0.016786	   -0.004961	   -0.002455	   -0.007417	   -0.035490	    0.002130	   -0.033360	   -0.065409	   -0.010790	   -0.076199	   -0.048650	    0.037614	   -0.011036	   -0.012694	    0.006931	   -0.005764	   -0.001928	   -0.007319	   -0.009247	   -0.002672	   -0.006321	   -0.008993	   -0.010479	   -0.003740	   -0.014219	   -0.014880	   -0.002164	   -0.017043	   -0.061107	   -0.005237	   -0.066343
     9.600	0	0	    0	   -0.035232	    0.014883	   -0.020349	   -0.005171	   -0.000681	   -0.005852	   -0.008750	   -0.002249	   -0.010999	   -0.009367	   -0.001278	   -0.010645	   -0.010564	   -0.003863	   -0.014426	   -0.012556	   -0.004369	   -0.016925	   -0.054402	   -0.009335	   -0.063737	   -0.046929	    0.026132	   -0.020797	   -0.021525	    0.016847	   -0.004679	   -0.012133	   -0.006497	   -0.018631	   -0.007346	   -0.002946	   -0.010292	   -0.009581	   -0.009402	   -0.018983	   -0.007623	   -0.003529	   -0.011152	   -0.038991	    0.003790	   -0.035202	   -0.068381	   -0.009794	   -0.078175	   -0.049481	    0.037744	   -0.011736	   -0.014880	    0.007078	   -0.007802	   -0.004799	   -0.007976	   -0.012776	   -0.005165	   -0.007007	   -0.012172	   -0.013807	   -0.002956	   -0.016762	   -0.018076	   -0.002565	   -0.020641	   -0.062364	   -0.005896	   -0.068259
     9.675	0	0	    0	   -0.037393	    0.016137	   -0.021256	   -0.006664	   -0.000931	   -0.007595	   -0.009519	   -0.003617	   -0.013136	   -0.012865	   -0.000466	   -0.013330	   -0.013164	   -0.003686	   -0.016850	   -0.014060	   -0.006382	   -0.020442	   -0.055010	   -0.012068	   -0.067078	   -0.048105	    0.026091	   -0.022015	   -0.022396	    0.016268	   -0.006127	   -0.013526	   -0.007364	   -0.020890	   -0.010112	   -0.002575	   -0.012687	   -0.014476	   -0.008399	   -0.022875	   -0.009807	   -0.005040	   -0.014847	   -0.038676	   -0.001131	   -0.039808	   -0.071272	   -0.008297	   -0.079569	   -0.049939	    0.037546	   -0.012393	   -0.016622	    0.006041	   -0.010581	   -0.009011	   -0.007489	   -0.016499	   -0.008596	   -0.007314	   -0.015909	   -0.016802	   -0.004565	   -0.021367	   -0.021087	   -0.003528	   -0.024615	   -0.065734	   -0.006024	   -0.071757
     9.750	0	0	    0	   -0.039998	    0.017023	   -0.022975	   -0.009679	   -0.000135	   -0.009814	   -0.012189	   -0.003044	   -0.015233	   -0.014665	   -0.000983	   -0.015649	   -0.015573	   -0.004069	   -0.019642	   -0.017894	   -0.005329	   -0.023224	   -0.063829	   -0.004009	   -0.067837	   -0.050480	    0.027106	   -0.023374	   -0.024443	    0.016516	   -0.007927	   -0.016766	   -0.006619	   -0.023385	   -0.011691	   -0.003445	   -0.015136	   -0.016854	   -0.008239	   -0.025093	   -0.014428	   -0.003799	   -0.018227	   -0.044890	    0.003972	   -0.040917	   -0.072205	   -0.009613	   -0.081818	   -0.051453	    0.038338	   -0.013115	   -0.020175	    0.007662	   -0.012513	   -0.010798	   -0.008849	   -0.019647	   -0.010970	   -0.008677	   -0.019647	   -0.021736	   -0.002857	   -0.024593	   -0.024458	   -0.002218	   -0.026676	   -0.064403	   -0.007103	   -0.071506
     9.825	0	0	    0	   -0.035923	    0.014884	   -0.021039	   -0.010416	   -0.001118	   -0.011534	   -0.013445	   -0.004041	   -0.017486	   -0.010163	   -0.003622	   -0.013785	   -0.009808	   -0.006776	   -0.016585	   -0.018718	   -0.008334	   -0.027051	   -0.060073	   -0.009332	   -0.069405	   -0.045034	    0.025908	   -0.019125	   -0.025983	    0.016521	   -0.009462	   -0.016216	   -0.009420	   -0.025636	   -0.011674	   -0.004692	   -0.016367	   -0.008031	   -0.013770	   -0.021801	   -0.017910	   -0.005167	   -0.023077	   -0.044911	    0.000249	   -0.044662	   -0.070592	   -0.010840	   -0.081432	   -0.053112	    0.039000	   -0.014112	   -0.022714	    0.007262	   -0.015452	   -0.008240	   -0.011827	   -0.020067	   -0.009394	   -0.011647	   -0.021041	   -0.024607	   -0.005341	   -0.029948	   -0.026877	   -0.004467	   -0.031343	   -0.065021	   -0.007187	   -0.072208
     9.900	0	0	    0	   -0.032024	    0.016602	   -0.015422	   -0.002490	   -0.001854	   -0.004343	   -0.006457	   -0.004418	   -0.010875	   -0.003081	   -0.001528	   -0.004609	   -0.004274	   -0.003245	   -0.007519	   -0.005451	   -0.007657	   -0.013108	   -0.040013	   -0.009911	   -0.049923	   -0.042570	    0.028275	   -0.014294	   -0.019168	    0.016149	   -0.003019	   -0.006299	   -0.008946	   -0.015245	   -0.003551	   -0.004940	   -0.008491	   -0.000891	   -0.008040	   -0.008931	   -0.000264	   -0.007671	   -0.007935	   -0.026779	    0.001209	   -0.025571	   -0.064929	   -0.009806	   -0.074736	   -0.046741	    0.038836	   -0.007904	   -0.011355	    0.005482	   -0.005873	    0.005810	   -0.008395	   -0.002584	    0.006255	   -0.008197	   -0.001942	   -0.007717	   -0.006210	   -0.013927	   -0.011054	   -0.005402	   -0.016456	   -0.059563	   -0.005680	   -0.065243
