 [File Information]      		 [Data Line]	36
Measured Date	2024/05/21 103741
ID		Version	11.0
Name	tristan_6	[HeaderType]	11.0/11.0
Comment	
[Measurement Info.]
Holder Location	       0
Block Design	Off     
Pre.Rest Time	       0
Task Time	       0
Pos.Rest Time	       0
Loop	       0
Averaging	       1
Total Points	     819
[.INF File]
Filename	Cognitive1.INF
[Condition-1]
HV Switching	OFF
 R1 ,R2 ,R3 ,R4 ,R5 ,R6 ,R7 ,R8 
 120.00, 70.00,120.00,100.00, 90.00, 70.00,120.00,120.00
 Gain(X1,X4,X16,X64)
 R1 ,R2 ,R3 ,R4 ,R5 ,R6 ,R7 ,R8 
 1,1,1,1,1,1,1,1
[Analysis Condition]
Smoothed Type	None            
Smoothed Points	       0
Smoothed Loop	       0
Baseline Method	None            
Baseline location	
[Text Info.]
Output Mode	Continious      	Task No.		Data Type	Hb      
Time Range	    0.00	   61.35	Averaing	1
(1,3)(5,3)(5,7)(2,7)(2,4)(6,4)(6,8)(1,1)(3,3)(5,5)(7,7)(2,2)(4,4)(6,6)(8,8)(3,1)(3,5)(7,5)(7,2)(4,2)(4,6)(8,6)
         	     	     	     	    ch- 1	    ch- 1	    ch- 1	    ch- 2	    ch- 2	    ch- 2	    ch- 3	    ch- 3	    ch- 3	    ch- 4	    ch- 4	    ch- 4	    ch- 5	    ch- 5	    ch- 5	    ch- 6	    ch- 6	    ch- 6	    ch- 7	    ch- 7	    ch- 7	    ch- 8	    ch- 8	    ch- 8	    ch- 9	    ch- 9	    ch- 9	    ch-10	    ch-10	    ch-10	    ch-11	    ch-11	    ch-11	    ch-12	    ch-12	    ch-12	    ch-13	    ch-13	    ch-13	    ch-14	    ch-14	    ch-14	    ch-15	    ch-15	    ch-15	    ch-16	    ch-16	    ch-16	    ch-17	    ch-17	    ch-17	    ch-18	    ch-18	    ch-18	    ch-19	    ch-19	    ch-19	    ch-20	    ch-20	    ch-20	    ch-21	    ch-21	    ch-21	    ch-22	    ch-22	    ch-22
Time(sec)	Task	Mark	Count	    oxyHb   	  deoxyHb	  totalHb	    oxyHb   	  deoxyHb	  totalHb	    oxyHb   	  deoxyHb	  totalHb	    oxyHb   	  deoxyHb	  totalHb	    oxyHb   	  deoxyHb	  totalHb	    oxyHb   	  deoxyHb	  totalHb	    oxyHb   	  deoxyHb	  totalHb	    oxyHb   	  deoxyHb	  totalHb	    oxyHb   	  deoxyHb	  totalHb	    oxyHb   	  deoxyHb	  totalHb	    oxyHb   	  deoxyHb	  totalHb	    oxyHb   	  deoxyHb	  totalHb	    oxyHb   	  deoxyHb	  totalHb	    oxyHb   	  deoxyHb	  totalHb	    oxyHb   	  deoxyHb	  totalHb	    oxyHb   	  deoxyHb	  totalHb	    oxyHb   	  deoxyHb	  totalHb	    oxyHb   	  deoxyHb	  totalHb	    oxyHb   	  deoxyHb	  totalHb	    oxyHb   	  deoxyHb	  totalHb	    oxyHb   	  deoxyHb	  totalHb	    oxyHb   	  deoxyHb	  totalHb
     0.000	0	0Z	    0	    0.000000	    0.000000	    0.000000	    0.000000	    0.000000	    0.000000	    0.000000	    0.000000	    0.000000	    0.000000	    0.000000	    0.000000	    0.000000	    0.000000	    0.000000	    0.000000	    0.000000	    0.000000	    0.000000	    0.000000	    0.000000	    0.000000	    0.000000	    0.000000	    0.000000	    0.000000	    0.000000	    0.000000	    0.000000	    0.000000	    0.000000	    0.000000	    0.000000	    0.000000	    0.000000	    0.000000	    0.000000	    0.000000	    0.000000	    0.000000	    0.000000	    0.000000	    0.000000	    0.000000	    0.000000	    0.000000	    0.000000	    0.000000	    0.000000	    0.000000	    0.000000	    0.000000	    0.000000	    0.000000	    0.000000	    0.000000	    0.000000	    0.000000	    0.000000	    0.000000	    0.000000	    0.000000	    0.000000	    0.000000	    0.000000	    0.000000
     0.075	0	0	    0	   -0.004462	   -0.000914	   -0.005376	    0.000931	    0.000026	    0.000958	   -0.000673	    0.001064	    0.000391	   -0.002384	    0.001462	   -0.000923	    0.000764	    0.001142	    0.001907	    0.000222	    0.003693	    0.003915	    0.005655	   -0.005644	    0.000011	   -0.004362	   -0.002015	   -0.006377	   -0.000013	   -0.000521	   -0.000534	    0.000226	    0.000923	    0.001149	    0.001172	   -0.000182	    0.000991	   -0.001766	    0.002421	    0.000655	    0.003737	   -0.003424	    0.000314	    0.000543	   -0.001207	   -0.000664	    0.001194	   -0.001014	    0.000179	   -0.000375	   -0.000924	   -0.001299	    0.000974	   -0.000460	    0.000515	   -0.003162	    0.000324	   -0.002838	   -0.005683	    0.001057	   -0.004626	   -0.001549	   -0.002177	   -0.003727	    0.001278	   -0.001064	    0.000214	    0.000956	   -0.004385	   -0.003429
     0.150	0	0	    0	   -0.008053	   -0.004036	   -0.012089	   -0.000951	    0.001395	    0.000444	    0.002462	   -0.001476	    0.000987	    0.000140	   -0.001052	   -0.000913	    0.002727	    0.001603	    0.004330	    0.007461	    0.001460	    0.008921	    0.002517	   -0.007163	   -0.004646	   -0.007060	   -0.005808	   -0.012867	   -0.003179	    0.000469	   -0.002710	   -0.002110	    0.003928	    0.001818	   -0.000214	    0.001572	    0.001358	   -0.001583	    0.001613	    0.000029	    0.000488	    0.000673	    0.001160	    0.000100	   -0.002999	   -0.002899	   -0.000381	   -0.000795	   -0.001177	   -0.001409	   -0.001500	   -0.002910	   -0.003138	    0.004636	    0.001498	   -0.008484	   -0.000056	   -0.008541	   -0.009940	   -0.000492	   -0.010432	   -0.008165	    0.001870	   -0.006296	   -0.002936	    0.001561	   -0.001374	   -0.002478	   -0.002248	   -0.004726
     0.225	0	0	    0	   -0.008559	   -0.005828	   -0.014388	   -0.003596	    0.001513	   -0.002083	   -0.000505	    0.000009	   -0.000496	   -0.000137	   -0.001917	   -0.002054	    0.001048	    0.002835	    0.003883	    0.007409	    0.006466	    0.013875	    0.003098	   -0.012964	   -0.009866	   -0.008980	   -0.007195	   -0.016174	   -0.005726	   -0.000664	   -0.006390	   -0.006133	    0.005103	   -0.001030	   -0.001574	    0.002076	    0.000502	   -0.004631	    0.002708	   -0.001923	   -0.002928	    0.001666	   -0.001262	   -0.006118	   -0.001492	   -0.007611	   -0.002922	   -0.000400	   -0.003322	   -0.003010	   -0.001653	   -0.004663	   -0.005916	    0.004459	   -0.001457	   -0.017877	    0.001364	   -0.016513	   -0.019484	   -0.000360	   -0.019844	   -0.015747	    0.001210	   -0.014537	   -0.008209	    0.002342	   -0.005866	   -0.003086	   -0.005187	   -0.008273
     0.300	0	0	    0	   -0.012145	   -0.007365	   -0.019510	   -0.008394	    0.002852	   -0.005542	   -0.002564	    0.000760	   -0.001803	   -0.001827	   -0.000128	   -0.001954	    0.001806	    0.004933	    0.006740	    0.004633	    0.006720	    0.011352	   -0.008433	   -0.001815	   -0.010248	   -0.011010	   -0.008809	   -0.019819	   -0.008018	   -0.002069	   -0.010087	   -0.013183	    0.006444	   -0.006738	   -0.003290	    0.002153	   -0.001137	   -0.007723	    0.004689	   -0.003034	   -0.009158	    0.001776	   -0.007382	   -0.010652	    0.000635	   -0.010018	   -0.000748	   -0.005049	   -0.005797	   -0.004646	   -0.002647	   -0.007293	   -0.009969	    0.002057	   -0.007912	   -0.026043	    0.000669	   -0.025373	   -0.026571	   -0.001344	   -0.027915	   -0.024149	    0.001487	   -0.022662	   -0.013652	    0.001565	   -0.012087	   -0.003291	   -0.007619	   -0.010910
     0.375	0	0	    0	   -0.015293	   -0.005848	   -0.021141	   -0.013571	    0.003790	   -0.009781	   -0.004182	    0.000287	   -0.003896	   -0.002856	   -0.000100	   -0.002956	    0.000286	    0.005164	    0.005450	    0.005382	    0.007206	    0.012588	   -0.007493	   -0.006240	   -0.013734	   -0.013991	   -0.008621	   -0.022612	   -0.011170	   -0.001997	   -0.013167	   -0.019631	    0.007342	   -0.012289	   -0.006051	    0.003036	   -0.003015	   -0.011239	    0.004445	   -0.006794	   -0.013752	    0.003311	   -0.010441	   -0.014934	   -0.000911	   -0.015844	   -0.005758	   -0.001665	   -0.007423	   -0.006342	   -0.003024	   -0.009365	   -0.014053	    0.003184	   -0.010868	   -0.033893	    0.001294	   -0.032599	   -0.035762	   -0.000654	   -0.036415	   -0.033188	    0.001552	   -0.031636	   -0.019716	    0.002251	   -0.017465	   -0.009083	   -0.005351	   -0.014434
     0.450	0	0	    0	   -0.013097	   -0.009207	   -0.022304	   -0.017447	    0.003159	   -0.014287	   -0.005587	    0.000376	   -0.005211	   -0.004014	   -0.000801	   -0.004814	    0.000731	    0.007412	    0.008144	    0.004488	    0.007990	    0.012478	   -0.008316	   -0.008710	   -0.017026	   -0.011245	   -0.010553	   -0.021797	   -0.014916	   -0.001318	   -0.016234	   -0.024818	    0.007159	   -0.017659	   -0.006687	    0.002353	   -0.004334	   -0.012918	    0.004712	   -0.008206	   -0.018967	    0.003343	   -0.015624	   -0.018523	   -0.000452	   -0.018975	   -0.005692	   -0.002321	   -0.008014	   -0.008090	   -0.003562	   -0.011652	   -0.019646	    0.003601	   -0.016044	   -0.041947	    0.000656	   -0.041292	   -0.044453	    0.000131	   -0.044321	   -0.042933	    0.003031	   -0.039902	   -0.025184	    0.001706	   -0.023478	   -0.008771	   -0.007440	   -0.016211
     0.525	0	0	    0	   -0.009209	   -0.006478	   -0.015687	   -0.005042	    0.002011	   -0.003031	   -0.003166	   -0.001081	   -0.004247	   -0.000892	   -0.003210	   -0.004102	    0.003051	    0.005366	    0.008417	    0.008179	    0.010911	    0.019090	    0.001022	   -0.011733	   -0.010711	   -0.007890	   -0.008706	   -0.016596	   -0.009184	   -0.002653	   -0.011837	   -0.011906	    0.007329	   -0.004577	   -0.004905	    0.002901	   -0.002004	   -0.004306	    0.004132	   -0.000174	   -0.007370	    0.001953	   -0.005418	   -0.004075	   -0.001654	   -0.005729	   -0.000901	   -0.003532	   -0.004433	   -0.004787	   -0.004976	   -0.009763	   -0.012679	    0.004547	   -0.008133	   -0.025989	   -0.000386	   -0.026375	   -0.028913	   -0.004792	   -0.033705	   -0.033991	   -0.001799	   -0.035791	   -0.013178	    0.001082	   -0.012096	   -0.001718	   -0.008972	   -0.010690
     0.600	0	0	    0	   -0.008633	   -0.006912	   -0.015545	   -0.001656	    0.008816	    0.007160	   -0.001935	    0.002231	    0.000296	    0.000817	   -0.004352	   -0.003535	    0.003456	    0.005853	    0.009309	    0.012213	    0.009404	    0.021617	   -0.002017	   -0.004778	   -0.006795	   -0.007266	   -0.009141	   -0.016407	   -0.005224	   -0.000263	   -0.005487	   -0.006279	    0.015351	    0.009072	   -0.001250	    0.005353	    0.004103	   -0.002531	    0.006063	    0.003532	   -0.000339	    0.010237	    0.009897	   -0.004345	    0.000910	   -0.003435	    0.000718	   -0.004610	   -0.003893	   -0.002831	   -0.004100	   -0.006931	   -0.001450	    0.006855	    0.005405	   -0.020151	    0.006912	   -0.013239	   -0.019826	    0.004282	   -0.015543	   -0.018203	    0.008654	   -0.009548	   -0.004952	    0.006245	    0.001292	   -0.003855	   -0.007661	   -0.011516
     0.675	0	0	    0	   -0.008451	   -0.007803	   -0.016255	   -0.001886	    0.010096	    0.008210	   -0.001738	    0.004118	    0.002379	    0.001489	   -0.003623	   -0.002133	    0.003203	    0.006874	    0.010077	    0.009931	    0.013195	    0.023126	   -0.003537	   -0.001480	   -0.005017	   -0.007484	   -0.009579	   -0.017062	   -0.006927	    0.001952	   -0.004974	   -0.006413	    0.018129	    0.011717	   -0.000876	    0.006365	    0.005489	   -0.003729	    0.007571	    0.003842	    0.001587	    0.012562	    0.014149	   -0.003079	    0.000403	   -0.002676	   -0.000087	   -0.003445	   -0.003532	   -0.003457	   -0.003671	   -0.007128	   -0.001699	    0.010764	    0.009065	   -0.023222	    0.009799	   -0.013423	   -0.022486	    0.008050	   -0.014436	   -0.018106	    0.014062	   -0.004044	   -0.006445	    0.010849	    0.004404	    0.000460	   -0.010836	   -0.010375
     0.750	0	0	    0	   -0.009218	   -0.008223	   -0.017441	   -0.004770	    0.010668	    0.005898	   -0.001828	    0.003354	    0.001527	    0.000348	   -0.004178	   -0.003830	    0.002952	    0.006743	    0.009695	    0.011607	    0.011283	    0.022889	    0.003273	   -0.011751	   -0.008478	   -0.008314	   -0.009242	   -0.017556	   -0.008100	    0.001015	   -0.007084	   -0.009544	    0.018684	    0.009140	   -0.002599	    0.007774	    0.005175	   -0.004156	    0.006850	    0.002694	   -0.002895	    0.014747	    0.011852	   -0.002193	   -0.005012	   -0.007206	    0.000625	   -0.004675	   -0.004049	   -0.004428	   -0.003922	   -0.008350	   -0.005069	    0.012691	    0.007621	   -0.026812	    0.009398	   -0.017414	   -0.025840	    0.006424	   -0.019416	   -0.023378	    0.014215	   -0.009164	   -0.008772	    0.009965	    0.001193	   -0.002798	   -0.009786	   -0.012584
     0.825	0	0	    0	   -0.008697	   -0.008955	   -0.017653	   -0.005205	    0.011515	    0.006310	   -0.002330	    0.003700	    0.001370	    0.001449	   -0.005998	   -0.004549	    0.001862	    0.007474	    0.009336	    0.011477	    0.008870	    0.020348	    0.005112	   -0.012574	   -0.007461	   -0.009057	   -0.008791	   -0.017848	   -0.007862	    0.000409	   -0.007453	   -0.009804	    0.020239	    0.010435	   -0.001592	    0.007152	    0.005560	   -0.006024	    0.008474	    0.002449	   -0.004745	    0.015293	    0.010549	   -0.002068	   -0.003762	   -0.005831	   -0.000078	   -0.004173	   -0.004251	   -0.004365	   -0.004786	   -0.009152	   -0.005128	    0.013983	    0.008854	   -0.029738	    0.011596	   -0.018142	   -0.029227	    0.009425	   -0.019802	   -0.024211	    0.015180	   -0.009031	   -0.009748	    0.010441	    0.000693	   -0.003638	   -0.009420	   -0.013058
     0.900	0	0	    0	   -0.017856	   -0.008442	   -0.026297	   -0.007600	    0.012917	    0.005317	   -0.003524	    0.004518	    0.000993	    0.001890	   -0.007871	   -0.005980	    0.018247	    0.003537	    0.021784	    0.010297	    0.009332	    0.019629	    0.002968	   -0.011386	   -0.008418	   -0.011095	   -0.009102	   -0.020197	   -0.008697	    0.000453	   -0.008244	   -0.013848	    0.022422	    0.008574	   -0.001675	    0.007886	    0.006211	    0.001092	    0.006050	    0.007141	   -0.007177	    0.015419	    0.008242	   -0.006870	    0.000112	   -0.006758	   -0.001067	   -0.004515	   -0.005582	   -0.005421	   -0.004403	   -0.009824	   -0.005784	    0.013102	    0.007318	   -0.037900	    0.013936	   -0.023964	   -0.035884	    0.011205	   -0.024679	   -0.027076	    0.015649	   -0.011427	   -0.012091	    0.011129	   -0.000961	   -0.004871	   -0.007492	   -0.012363
     0.975	0	0	    0	   -0.051054	   -0.025873	   -0.076927	   -0.003738	    0.009807	    0.006069	    0.014028	   -0.012626	    0.001402	   -0.009711	   -0.037898	   -0.047608	    0.197691	    0.055089	    0.252780	    0.097970	   -0.000016	    0.097955	   -0.006922	   -0.011178	   -0.018100	   -0.013663	   -0.012117	   -0.025779	   -0.014879	    0.002296	   -0.012583	    0.003373	    0.017441	    0.020814	    0.016119	    0.004105	    0.020224	    0.066342	    0.021570	    0.087912	    0.016421	    0.007596	    0.024017	   -0.006479	   -0.001351	   -0.007830	   -0.002951	   -0.005306	   -0.008257	   -0.008977	   -0.004582	   -0.013559	   -0.009074	    0.015636	    0.006562	   -0.068583	    0.011035	   -0.057548	   -0.075995	    0.007556	   -0.068439	   -0.041572	    0.019056	   -0.022516	   -0.020225	    0.013782	   -0.006443	   -0.005354	   -0.010396	   -0.015750
     1.050	0	0	    0	   -0.055666	   -0.056782	   -0.112449	    0.021487	    0.010537	    0.032024	    0.039253	   -0.050316	   -0.011063	   -0.000305	   -0.105751	   -0.106056	    0.206776	    0.132731	    0.339507	    0.303852	    0.124946	    0.428798	   -0.037458	   -0.028631	   -0.066089	   -0.015446	   -0.013661	   -0.029107	   -0.019080	    0.004412	   -0.014669	    0.059346	    0.059220	    0.118566	    0.023652	    0.004505	    0.028158	    0.074638	    0.048221	    0.122860	    0.101665	    0.058216	    0.159881	   -0.022461	   -0.000502	   -0.022963	   -0.010157	   -0.004867	   -0.015024	   -0.011779	   -0.010463	   -0.022242	   -0.013814	    0.028087	    0.014274	   -0.094112	   -0.024868	   -0.118980	   -0.121632	   -0.052063	   -0.173695	   -0.073989	    0.017526	   -0.056463	   -0.033139	    0.016066	   -0.017074	   -0.011261	   -0.011252	   -0.022512
     1.125	0	0	    0	   -0.019757	   -0.037508	   -0.057265	    0.008256	    0.017066	    0.025322	    0.034974	   -0.058068	   -0.023094	    0.011626	   -0.054664	   -0.043038	    0.021001	    0.111265	    0.132266	    0.221584	    0.185387	    0.406971	   -0.017103	   -0.041584	   -0.058688	   -0.016642	   -0.015099	   -0.031741	   -0.024163	    0.003628	   -0.020534	   -0.006975	    0.084841	    0.077866	   -0.010466	   -0.009046	   -0.019512	    0.002052	    0.025885	    0.027937	    0.061852	    0.090339	    0.152190	   -0.024252	   -0.004541	   -0.028793	   -0.009328	   -0.007976	   -0.017304	   -0.010484	   -0.011887	   -0.022371	   -0.029846	    0.031442	    0.001596	   -0.065235	   -0.022897	   -0.088132	   -0.052834	   -0.040821	   -0.093656	   -0.073861	    0.009282	   -0.064579	   -0.042767	    0.014823	   -0.027943	   -0.008480	   -0.014556	   -0.023036
     1.200	0	0	    0	   -0.000821	    0.005301	    0.004480	   -0.025842	    0.016868	   -0.008974	   -0.003642	   -0.009813	   -0.013455	   -0.004862	   -0.002246	   -0.007108	   -0.009399	    0.023338	    0.013939	   -0.012857	    0.090775	    0.077919	   -0.002475	   -0.002803	   -0.005278	   -0.011962	   -0.012159	   -0.024121	   -0.023999	   -0.001412	   -0.025410	   -0.060995	    0.019811	   -0.041184	   -0.017335	   -0.000242	   -0.017577	   -0.020876	    0.013590	   -0.007286	   -0.032776	    0.041427	    0.008650	   -0.020925	    0.003548	   -0.017378	   -0.003930	   -0.007600	   -0.011530	   -0.007041	   -0.007439	   -0.014480	   -0.035779	    0.005475	   -0.030305	   -0.044102	    0.013201	   -0.030901	   -0.032500	    0.018868	   -0.013633	   -0.052996	    0.021155	   -0.031841	   -0.043450	    0.004160	   -0.039289	   -0.002501	   -0.011415	   -0.013916
     1.275	0	0	    0	   -0.000583	    0.023901	    0.023318	   -0.031702	    0.025706	   -0.005996	   -0.024989	    0.017033	   -0.007957	   -0.005302	    0.006474	    0.001171	   -0.013700	    0.009228	   -0.004471	   -0.032394	   -0.004624	   -0.037018	    0.005970	   -0.004620	    0.001350	   -0.010811	   -0.006262	   -0.017074	   -0.010827	    0.003074	   -0.007753	   -0.059154	    0.012219	   -0.046934	   -0.020028	    0.006461	   -0.013567	   -0.024804	    0.006557	   -0.018247	   -0.047913	    0.003393	   -0.044520	   -0.008744	    0.000528	   -0.008216	   -0.002498	   -0.004236	   -0.006734	   -0.000496	   -0.004479	   -0.004975	   -0.023900	    0.001212	   -0.022688	   -0.031340	    0.028475	   -0.002865	   -0.020937	    0.035711	    0.014774	   -0.033258	    0.028615	   -0.004643	   -0.029288	    0.005880	   -0.023409	   -0.000105	   -0.007056	   -0.007161
     1.350	0	0	    0	   -0.000844	    0.025582	    0.024738	   -0.036368	    0.030360	   -0.006008	   -0.026319	    0.020983	   -0.005336	   -0.007634	    0.009951	    0.002317	   -0.016646	    0.007890	   -0.008756	   -0.039215	   -0.019335	   -0.058550	    0.005600	   -0.003400	    0.002200	   -0.010524	   -0.005596	   -0.016120	   -0.010748	    0.009970	   -0.000778	   -0.063767	    0.012591	   -0.051176	   -0.019032	    0.008400	   -0.010633	   -0.029693	    0.005791	   -0.023902	   -0.055011	   -0.002811	   -0.057822	   -0.005725	   -0.001653	   -0.007378	   -0.002032	   -0.004011	   -0.006043	    0.000996	   -0.001467	   -0.000470	   -0.024870	    0.002829	   -0.022041	   -0.038222	    0.034643	   -0.003579	   -0.028536	    0.040666	    0.012131	   -0.031404	    0.037000	    0.005596	   -0.027785	    0.010632	   -0.017153	   -0.002034	   -0.004857	   -0.006891
     1.425	0	0	    0	   -0.002514	    0.021853	    0.019339	   -0.040284	    0.030374	   -0.009910	   -0.027107	    0.021952	   -0.005156	   -0.005481	    0.006358	    0.000878	   -0.016444	    0.005337	   -0.011108	   -0.035191	   -0.020179	   -0.055370	    0.002406	    0.000191	    0.002598	   -0.010097	   -0.006987	   -0.017084	   -0.013706	    0.011180	   -0.002526	   -0.070135	    0.012591	   -0.057544	   -0.021972	    0.011370	   -0.010602	   -0.031551	    0.003810	   -0.027741	   -0.058362	   -0.005300	   -0.063662	   -0.011813	    0.004685	   -0.007129	   -0.005386	   -0.001502	   -0.006889	   -0.000806	    0.000430	   -0.000377	   -0.030374	    0.002229	   -0.028146	   -0.046285	    0.032591	   -0.013693	   -0.036678	    0.038462	    0.001784	   -0.040878	    0.039736	   -0.001142	   -0.031289	    0.012047	   -0.019242	   -0.004019	   -0.003656	   -0.007676
     1.500	0	0	    0	   -0.004431	    0.019438	    0.015007	   -0.041321	    0.029350	   -0.011970	   -0.025875	    0.019938	   -0.005937	   -0.006536	    0.006307	   -0.000229	   -0.018469	    0.006102	   -0.012367	   -0.031977	   -0.019120	   -0.051096	    0.000478	   -0.001022	   -0.000544	   -0.010415	   -0.006940	   -0.017354	   -0.016299	    0.009413	   -0.006886	   -0.072150	    0.013629	   -0.058521	   -0.020601	    0.010727	   -0.009874	   -0.033410	    0.004436	   -0.028974	   -0.060550	   -0.006581	   -0.067130	   -0.013560	    0.003742	   -0.009818	   -0.001053	   -0.006706	   -0.007758	   -0.001220	   -0.000490	   -0.001710	   -0.033114	    0.001630	   -0.031484	   -0.050132	    0.030510	   -0.019622	   -0.042593	    0.035389	   -0.007203	   -0.046781	    0.037537	   -0.009244	   -0.029946	    0.009723	   -0.020223	    0.001182	   -0.009690	   -0.008508
     1.575	0	0	    0	   -0.006977	    0.015698	    0.008721	   -0.041497	    0.029636	   -0.011862	   -0.025917	    0.019823	   -0.006094	   -0.004625	    0.003697	   -0.000929	   -0.020165	    0.007288	   -0.012877	   -0.029039	   -0.017673	   -0.046711	   -0.000139	   -0.000283	   -0.000422	   -0.013461	   -0.006331	   -0.019792	   -0.016755	    0.008542	   -0.008212	   -0.070488	    0.015616	   -0.054872	   -0.021400	    0.012113	   -0.009287	   -0.035937	    0.005959	   -0.029978	   -0.060793	   -0.005008	   -0.065802	   -0.012578	    0.000259	   -0.012319	   -0.003114	   -0.003994	   -0.007108	   -0.001894	   -0.000754	   -0.002648	   -0.034528	    0.002966	   -0.031561	   -0.056353	    0.030887	   -0.025466	   -0.047584	    0.035693	   -0.011891	   -0.049292	    0.038882	   -0.010410	   -0.032702	    0.013278	   -0.019424	   -0.001300	   -0.009541	   -0.010842
     1.650	0	0	    0	   -0.008602	    0.014387	    0.005785	   -0.047275	    0.032666	   -0.014609	   -0.027860	    0.021518	   -0.006341	   -0.005860	    0.004926	   -0.000934	   -0.021008	    0.006361	   -0.014647	   -0.033121	   -0.016557	   -0.049678	   -0.006928	    0.007052	    0.000124	   -0.013128	   -0.008612	   -0.021740	   -0.020002	    0.009546	   -0.010456	   -0.079013	    0.020672	   -0.058340	   -0.023933	    0.012331	   -0.011602	   -0.038656	    0.006382	   -0.032274	   -0.066930	   -0.001378	   -0.068308	   -0.020989	    0.004548	   -0.016441	   -0.002154	   -0.006460	   -0.008614	   -0.003250	   -0.001259	   -0.004509	   -0.039269	    0.005433	   -0.033836	   -0.063004	    0.032030	   -0.030974	   -0.053192	    0.035230	   -0.017962	   -0.056387	    0.040156	   -0.016231	   -0.037528	    0.015036	   -0.022492	   -0.002013	   -0.010235	   -0.012248
     1.725	0	0	    0	   -0.012571	    0.014620	    0.002050	   -0.050547	    0.032047	   -0.018500	   -0.029073	    0.021013	   -0.008060	   -0.006691	    0.003643	   -0.003049	   -0.022319	    0.006189	   -0.016130	   -0.029416	   -0.017563	   -0.046979	   -0.008342	    0.001242	   -0.007099	   -0.015478	   -0.008062	   -0.023540	   -0.023583	    0.009477	   -0.014106	   -0.083439	    0.021837	   -0.061602	   -0.026223	    0.013867	   -0.012355	   -0.041147	    0.006980	   -0.034167	   -0.072102	   -0.001386	   -0.073488	   -0.020848	    0.003036	   -0.017812	   -0.002927	   -0.007907	   -0.010834	   -0.004601	   -0.002398	   -0.006998	   -0.044092	    0.004529	   -0.039562	   -0.071627	    0.031568	   -0.040059	   -0.061568	    0.033796	   -0.027772	   -0.064551	    0.040258	   -0.024292	   -0.040932	    0.013779	   -0.027153	   -0.004229	   -0.009953	   -0.014182
     1.800	0	0	    0	   -0.015783	    0.013939	   -0.001844	   -0.055276	    0.032183	   -0.023093	   -0.031941	    0.022635	   -0.009306	   -0.008756	    0.004361	   -0.004395	   -0.023721	    0.005848	   -0.017873	   -0.035128	   -0.016954	   -0.052082	   -0.004863	   -0.003077	   -0.007940	   -0.018193	   -0.007124	   -0.025316	   -0.025625	    0.008788	   -0.016837	   -0.090279	    0.023228	   -0.067051	   -0.028850	    0.013237	   -0.015613	   -0.044196	    0.006654	   -0.037541	   -0.078946	    0.000440	   -0.078506	   -0.024166	    0.002886	   -0.021280	   -0.003236	   -0.007973	   -0.011209	   -0.006332	   -0.003011	   -0.009343	   -0.048746	    0.004677	   -0.044069	   -0.079774	    0.032214	   -0.047559	   -0.069069	    0.033951	   -0.035118	   -0.072967	    0.040423	   -0.032544	   -0.045720	    0.013595	   -0.032125	   -0.005532	   -0.009558	   -0.015090
     1.875	0	0	    0	   -0.016139	    0.012140	   -0.003998	   -0.061168	    0.033163	   -0.028004	   -0.033063	    0.021889	   -0.011174	   -0.010062	    0.004138	   -0.005923	   -0.024471	    0.004853	   -0.019617	   -0.036723	   -0.015286	   -0.052009	   -0.008686	   -0.003351	   -0.012037	   -0.016658	   -0.009376	   -0.026034	   -0.029893	    0.009994	   -0.019899	   -0.096490	    0.026183	   -0.070307	   -0.032645	    0.014714	   -0.017931	   -0.046912	    0.007170	   -0.039742	   -0.084169	    0.000897	   -0.083272	   -0.027645	   -0.000058	   -0.027703	   -0.007568	   -0.006323	   -0.013892	   -0.008529	   -0.003451	   -0.011980	   -0.055358	    0.006554	   -0.048804	   -0.088042	    0.031806	   -0.056236	   -0.079194	    0.034536	   -0.044658	   -0.083351	    0.041785	   -0.041566	   -0.052727	    0.014069	   -0.038658	   -0.010197	   -0.010266	   -0.020463
     1.950	0	0	    0	   -0.010566	    0.012763	    0.002197	   -0.055246	    0.031111	   -0.024135	   -0.034133	    0.022341	   -0.011791	   -0.008800	    0.003992	   -0.004808	   -0.022302	    0.004198	   -0.018104	   -0.033517	   -0.017484	   -0.051001	   -0.001652	   -0.005981	   -0.007634	   -0.012566	   -0.007286	   -0.019852	   -0.027888	    0.008273	   -0.019615	   -0.092831	    0.026022	   -0.066810	   -0.033115	    0.014325	   -0.018790	   -0.041484	    0.004698	   -0.036786	   -0.083473	   -0.001569	   -0.085042	   -0.015475	   -0.002945	   -0.018420	   -0.003622	   -0.007412	   -0.011034	   -0.007679	   -0.004481	   -0.012160	   -0.055463	    0.006657	   -0.048805	   -0.083753	    0.030233	   -0.053520	   -0.079023	    0.030768	   -0.048254	   -0.089344	    0.041419	   -0.047925	   -0.049271	    0.013489	   -0.035782	   -0.004278	   -0.010170	   -0.014448
     2.025	0	0	    0	   -0.012176	    0.015936	    0.003760	   -0.044500	    0.035868	   -0.008632	   -0.029734	    0.022637	   -0.007097	   -0.006621	    0.002436	   -0.004185	   -0.021762	    0.006351	   -0.015411	   -0.032608	   -0.012294	   -0.044902	    0.006289	   -0.008675	   -0.002386	   -0.012076	   -0.006044	   -0.018119	   -0.021004	    0.010942	   -0.010062	   -0.077021	    0.031801	   -0.045221	   -0.026514	    0.015709	   -0.010804	   -0.034589	    0.009744	   -0.024846	   -0.064987	    0.003661	   -0.061326	   -0.010280	    0.000320	   -0.009960	   -0.002034	   -0.005679	   -0.007713	   -0.003501	   -0.004349	   -0.007850	   -0.041478	    0.009264	   -0.032215	   -0.070358	    0.037160	   -0.033198	   -0.058885	    0.035054	   -0.023831	   -0.064726	    0.041017	   -0.023709	   -0.032849	    0.017255	   -0.015594	   -0.004881	   -0.006901	   -0.011782
     2.100	0	0	    0	   -0.011195	    0.014926	    0.003731	   -0.044084	    0.040124	   -0.003960	   -0.029226	    0.024068	   -0.005158	   -0.008105	    0.004143	   -0.003961	   -0.021262	    0.006897	   -0.014365	   -0.029786	   -0.010346	   -0.040132	    0.004286	   -0.005834	   -0.001548	   -0.012279	   -0.005294	   -0.017573	   -0.019323	    0.012090	   -0.007232	   -0.075913	    0.038667	   -0.037246	   -0.025672	    0.017597	   -0.008074	   -0.032890	    0.011981	   -0.020909	   -0.061762	    0.010557	   -0.051206	   -0.011581	    0.001488	   -0.010093	   -0.001954	   -0.005812	   -0.007766	   -0.003396	   -0.003661	   -0.007057	   -0.037732	    0.013768	   -0.023965	   -0.069229	    0.041994	   -0.027234	   -0.054866	    0.040012	   -0.014853	   -0.058412	    0.050174	   -0.008237	   -0.031538	    0.022210	   -0.009328	   -0.003427	   -0.009771	   -0.013198
     2.175	0	0	    0	   -0.011972	    0.014462	    0.002490	   -0.046106	    0.042213	   -0.003893	   -0.029448	    0.024975	   -0.004473	   -0.007448	    0.004254	   -0.003195	   -0.022024	    0.008034	   -0.013990	   -0.028578	   -0.011095	   -0.039673	    0.002002	   -0.002950	   -0.000949	   -0.012918	   -0.005733	   -0.018652	   -0.019840	    0.012662	   -0.007179	   -0.077132	    0.041269	   -0.035863	   -0.025214	    0.018489	   -0.006725	   -0.033767	    0.012543	   -0.021223	   -0.064210	    0.013414	   -0.050795	   -0.012508	    0.002673	   -0.009835	   -0.004836	   -0.004333	   -0.009170	   -0.003908	   -0.003727	   -0.007635	   -0.037742	    0.015231	   -0.022510	   -0.072922	    0.043024	   -0.029898	   -0.059762	    0.041904	   -0.017859	   -0.059538	    0.051222	   -0.008316	   -0.032815	    0.024213	   -0.008602	   -0.002430	   -0.010119	   -0.012549
     2.250	0	0	    0	   -0.013443	    0.013229	   -0.000214	   -0.046532	    0.042546	   -0.003986	   -0.030053	    0.025246	   -0.004807	   -0.005875	    0.001220	   -0.004655	   -0.020716	    0.008331	   -0.012385	   -0.026975	   -0.010014	   -0.036989	   -0.004454	    0.001104	   -0.003351	   -0.013561	   -0.006694	   -0.020255	   -0.021835	    0.013852	   -0.007984	   -0.077319	    0.041978	   -0.035342	   -0.025454	    0.019316	   -0.006138	   -0.032932	    0.013465	   -0.019468	   -0.064635	    0.013051	   -0.051584	   -0.014976	    0.006594	   -0.008382	   -0.004443	   -0.005320	   -0.009763	   -0.004146	   -0.004594	   -0.008740	   -0.039432	    0.016173	   -0.023260	   -0.074802	    0.043163	   -0.031640	   -0.060831	    0.040753	   -0.020078	   -0.063301	    0.051166	   -0.012135	   -0.033570	    0.023727	   -0.009843	   -0.003061	   -0.010555	   -0.013615
     2.325	0	0	    0	   -0.015303	    0.011753	   -0.003549	   -0.048017	    0.044363	   -0.003654	   -0.029416	    0.024588	   -0.004828	   -0.005130	    0.000005	   -0.005124	   -0.020796	    0.008605	   -0.012192	   -0.027620	   -0.008481	   -0.036101	   -0.002338	   -0.005872	   -0.008210	   -0.015680	   -0.007983	   -0.023664	   -0.022497	    0.014048	   -0.008448	   -0.079969	    0.046066	   -0.033903	   -0.025922	    0.019622	   -0.006300	   -0.033678	    0.014034	   -0.019644	   -0.065622	    0.016369	   -0.049253	   -0.013722	    0.000062	   -0.013659	   -0.003103	   -0.007419	   -0.010522	   -0.004545	   -0.005468	   -0.010013	   -0.039147	    0.016706	   -0.022441	   -0.078700	    0.045233	   -0.033468	   -0.063223	    0.042066	   -0.021157	   -0.065920	    0.053919	   -0.012001	   -0.035392	    0.024381	   -0.011011	   -0.003859	   -0.012710	   -0.016569
     2.400	0	0	    0	   -0.018423	    0.011977	   -0.006446	   -0.052133	    0.046368	   -0.005765	   -0.032158	    0.026487	   -0.005671	   -0.006023	    0.000893	   -0.005130	   -0.020078	    0.008795	   -0.011283	   -0.028476	   -0.006052	   -0.034528	   -0.007696	    0.000087	   -0.007609	   -0.017276	   -0.008770	   -0.026046	   -0.024835	    0.013638	   -0.011196	   -0.085083	    0.048887	   -0.036196	   -0.027837	    0.020315	   -0.007522	   -0.035559	    0.014531	   -0.021028	   -0.067986	    0.017147	   -0.050839	   -0.019400	    0.004414	   -0.014986	   -0.001289	   -0.009393	   -0.010682	   -0.005294	   -0.005953	   -0.011247	   -0.042765	    0.019342	   -0.023423	   -0.084370	    0.045083	   -0.039287	   -0.068577	    0.042094	   -0.026484	   -0.070522	    0.054403	   -0.016119	   -0.038400	    0.024113	   -0.014287	   -0.001565	   -0.014842	   -0.016406
     2.475	0	0	    0	   -0.020894	    0.010442	   -0.010452	   -0.056811	    0.047287	   -0.009525	   -0.032064	    0.024893	   -0.007170	   -0.006478	    0.000011	   -0.006468	   -0.020987	    0.010991	   -0.009996	   -0.025844	   -0.005398	   -0.031242	   -0.003152	   -0.008772	   -0.011925	   -0.018757	   -0.010035	   -0.028792	   -0.028649	    0.014695	   -0.013954	   -0.089469	    0.049236	   -0.040233	   -0.029741	    0.021006	   -0.008735	   -0.038269	    0.015754	   -0.022514	   -0.073004	    0.018434	   -0.054570	   -0.022026	    0.003822	   -0.018204	   -0.002656	   -0.009044	   -0.011700	   -0.007365	   -0.005802	   -0.013167	   -0.050248	    0.022024	   -0.028224	   -0.093413	    0.045787	   -0.047626	   -0.075861	    0.042035	   -0.033826	   -0.080646	    0.058075	   -0.022571	   -0.045812	    0.025334	   -0.020478	   -0.004082	   -0.013119	   -0.017201
     2.550	0	0	    0	   -0.023251	    0.011808	   -0.011443	   -0.062133	    0.047555	   -0.014578	   -0.035354	    0.027172	   -0.008182	   -0.009454	    0.003202	   -0.006252	   -0.024296	    0.011009	   -0.013288	   -0.031813	   -0.004045	   -0.035858	   -0.007272	   -0.007210	   -0.014482	   -0.020433	   -0.009566	   -0.029999	   -0.030407	    0.013195	   -0.017212	   -0.097720	    0.050896	   -0.046824	   -0.033550	    0.021518	   -0.012032	   -0.043299	    0.016433	   -0.026866	   -0.079674	    0.020528	   -0.059146	   -0.027378	    0.003983	   -0.023395	   -0.002700	   -0.009946	   -0.012646	   -0.008973	   -0.006007	   -0.014980	   -0.053624	    0.020939	   -0.032685	   -0.099307	    0.045940	   -0.053367	   -0.081957	    0.042512	   -0.039446	   -0.087376	    0.056179	   -0.031197	   -0.052755	    0.025854	   -0.026901	   -0.004825	   -0.014151	   -0.018977
     2.625	0	0	    0	   -0.021440	    0.010985	   -0.010456	   -0.069148	    0.048498	   -0.020650	   -0.040523	    0.029290	   -0.011232	   -0.011935	    0.003328	   -0.008607	   -0.025488	    0.008546	   -0.016942	   -0.037421	   -0.008067	   -0.045487	   -0.010210	   -0.009551	   -0.019761	   -0.018476	   -0.010479	   -0.028955	   -0.035450	    0.015455	   -0.019996	   -0.106113	    0.050940	   -0.055173	   -0.038397	    0.021280	   -0.017117	   -0.046236	    0.014349	   -0.031886	   -0.088787	    0.019509	   -0.069277	   -0.030302	    0.001455	   -0.028847	   -0.008939	   -0.008336	   -0.017275	   -0.009960	   -0.006689	   -0.016649	   -0.058977	    0.021019	   -0.037958	   -0.106858	    0.047791	   -0.059067	   -0.089410	    0.043742	   -0.045668	   -0.096490	    0.057847	   -0.038643	   -0.059017	    0.025302	   -0.033715	   -0.008774	   -0.012954	   -0.021729
     2.700	0	0	    0	   -0.015950	    0.012724	   -0.003226	   -0.062433	    0.047413	   -0.015019	   -0.040243	    0.028695	   -0.011548	   -0.010332	    0.002007	   -0.008325	   -0.028141	    0.010170	   -0.017971	   -0.037478	   -0.008506	   -0.045984	   -0.001092	   -0.010960	   -0.012052	   -0.013679	   -0.008976	   -0.022655	   -0.032291	    0.013734	   -0.018557	   -0.100640	    0.050227	   -0.050412	   -0.037171	    0.020224	   -0.016947	   -0.042048	    0.014495	   -0.027554	   -0.085029	    0.015106	   -0.069923	   -0.019447	    0.002003	   -0.017444	    0.000298	   -0.012513	   -0.012215	   -0.008067	   -0.007387	   -0.015454	   -0.057744	    0.019519	   -0.038224	   -0.097662	    0.045371	   -0.052291	   -0.083334	    0.040110	   -0.043224	   -0.096371	    0.054436	   -0.041935	   -0.050124	    0.021511	   -0.028612	   -0.001031	   -0.014224	   -0.015255
     2.775	0	0	    0	   -0.015330	    0.014412	   -0.000918	   -0.053179	    0.051548	   -0.001631	   -0.037051	    0.030885	   -0.006166	   -0.008889	    0.003255	   -0.005634	   -0.026898	    0.009750	   -0.017148	   -0.027702	   -0.014867	   -0.042569	    0.006982	   -0.012436	   -0.005454	   -0.012604	   -0.007107	   -0.019711	   -0.024277	    0.015645	   -0.008632	   -0.087300	    0.055223	   -0.032077	   -0.031363	    0.022416	   -0.008947	   -0.036991	    0.018127	   -0.018864	   -0.071632	    0.019450	   -0.052181	   -0.012407	    0.002305	   -0.010102	   -0.001783	   -0.007960	   -0.009743	   -0.004105	   -0.006421	   -0.010526	   -0.044227	    0.022853	   -0.021375	   -0.086744	    0.053106	   -0.033638	   -0.066696	    0.047475	   -0.019221	   -0.073570	    0.060280	   -0.013290	   -0.036603	    0.026468	   -0.010134	    0.000279	   -0.013013	   -0.012734
     2.850	0	0	    0	   -0.014653	    0.014760	    0.000107	   -0.053192	    0.054662	    0.001470	   -0.036971	    0.032444	   -0.004527	   -0.010635	    0.003829	   -0.006806	   -0.025516	    0.008787	   -0.016730	   -0.029979	   -0.010816	   -0.040795	    0.001872	   -0.006008	   -0.004136	   -0.013224	   -0.006809	   -0.020033	   -0.023866	    0.017862	   -0.006004	   -0.087574	    0.060308	   -0.027265	   -0.031847	    0.024431	   -0.007416	   -0.036353	    0.018195	   -0.018157	   -0.069772	    0.023470	   -0.046302	   -0.013843	    0.005000	   -0.008842	   -0.002764	   -0.006518	   -0.009282	   -0.003832	   -0.005952	   -0.009784	   -0.042516	    0.027232	   -0.015284	   -0.084078	    0.056755	   -0.027323	   -0.062483	    0.050774	   -0.011709	   -0.069289	    0.067273	   -0.002017	   -0.034073	    0.029306	   -0.004768	   -0.000150	   -0.012758	   -0.012908
     2.925	0	0	    0	   -0.015161	    0.013822	   -0.001339	   -0.056224	    0.056408	    0.000184	   -0.038485	    0.033686	   -0.004799	   -0.009735	    0.002173	   -0.007563	   -0.025163	    0.009420	   -0.015743	   -0.031585	   -0.009786	   -0.041371	    0.003402	   -0.008330	   -0.004928	   -0.013892	   -0.006894	   -0.020786	   -0.024140	    0.018139	   -0.006002	   -0.091019	    0.061844	   -0.029175	   -0.032148	    0.024682	   -0.007467	   -0.037279	    0.018908	   -0.018371	   -0.071435	    0.026388	   -0.045047	   -0.011456	   -0.000025	   -0.011481	   -0.001820	   -0.008251	   -0.010071	   -0.003779	   -0.005840	   -0.009619	   -0.041745	    0.026047	   -0.015698	   -0.087505	    0.057786	   -0.029719	   -0.067121	    0.053343	   -0.013778	   -0.071862	    0.068578	   -0.003284	   -0.037024	    0.031567	   -0.005457	   -0.000152	   -0.013208	   -0.013360
     3.000	0	0	    0	   -0.016242	    0.014591	   -0.001651	   -0.057665	    0.057481	   -0.000184	   -0.038861	    0.033001	   -0.005861	   -0.008957	    0.000679	   -0.008279	   -0.025722	    0.010127	   -0.015595	   -0.030296	   -0.005965	   -0.036260	   -0.004444	   -0.001771	   -0.006215	   -0.012571	   -0.006257	   -0.018829	   -0.025290	    0.018796	   -0.006495	   -0.091931	    0.063463	   -0.028468	   -0.031783	    0.025183	   -0.006600	   -0.036447	    0.019745	   -0.016702	   -0.070799	    0.025351	   -0.045448	   -0.015734	    0.005093	   -0.010641	    0.000004	   -0.009613	   -0.009609	   -0.004266	   -0.006129	   -0.010394	   -0.043514	    0.027208	   -0.016305	   -0.089019	    0.057751	   -0.031267	   -0.067261	    0.052116	   -0.015145	   -0.073687	    0.067913	   -0.005774	   -0.037461	    0.030094	   -0.007367	    0.000418	   -0.013754	   -0.013336
     3.075	0	0	    0	   -0.019442	    0.012522	   -0.006921	   -0.058188	    0.056784	   -0.001404	   -0.039620	    0.033776	   -0.005844	   -0.007513	   -0.000128	   -0.007640	   -0.022765	    0.011694	   -0.011071	   -0.027840	   -0.006389	   -0.034229	   -0.002968	   -0.003259	   -0.006227	   -0.014586	   -0.005749	   -0.020335	   -0.026364	    0.019341	   -0.007023	   -0.093518	    0.065151	   -0.028367	   -0.031071	    0.025857	   -0.005214	   -0.035657	    0.020874	   -0.014783	   -0.073076	    0.026702	   -0.046375	   -0.013826	    0.002055	   -0.011771	   -0.002304	   -0.007951	   -0.010256	   -0.004583	   -0.005656	   -0.010239	   -0.046868	    0.029877	   -0.016991	   -0.093792	    0.059366	   -0.034426	   -0.072586	    0.053901	   -0.018686	   -0.076929	    0.070736	   -0.006194	   -0.038780	    0.031309	   -0.007471	   -0.002166	   -0.012235	   -0.014401
     3.150	0	0	    0	   -0.019750	    0.011433	   -0.008317	   -0.063530	    0.058379	   -0.005151	   -0.039858	    0.032356	   -0.007502	   -0.006880	   -0.001270	   -0.008151	   -0.023488	    0.011265	   -0.012224	   -0.030468	   -0.003652	   -0.034119	   -0.002960	   -0.007966	   -0.010926	   -0.015272	   -0.006735	   -0.022007	   -0.028753	    0.019688	   -0.009065	   -0.099908	    0.066271	   -0.033637	   -0.034274	    0.027301	   -0.006973	   -0.037428	    0.019969	   -0.017459	   -0.077406	    0.031604	   -0.045802	   -0.022520	    0.005801	   -0.016719	   -0.006146	   -0.005460	   -0.011606	   -0.005205	   -0.006057	   -0.011261	   -0.049791	    0.029957	   -0.019834	   -0.098762	    0.059045	   -0.039718	   -0.078053	    0.054370	   -0.023684	   -0.083101	    0.070826	   -0.012276	   -0.043382	    0.031689	   -0.011693	   -0.003626	   -0.012436	   -0.016062
     3.225	0	0	    0	   -0.022617	    0.013136	   -0.009481	   -0.067454	    0.058113	   -0.009341	   -0.042396	    0.033803	   -0.008593	   -0.009977	    0.001535	   -0.008442	   -0.026085	    0.011681	   -0.014404	   -0.029915	   -0.003061	   -0.032976	   -0.003833	   -0.008662	   -0.012496	   -0.016913	   -0.005895	   -0.022808	   -0.031484	    0.019357	   -0.012127	   -0.105350	    0.066199	   -0.039152	   -0.035404	    0.027450	   -0.007954	   -0.042244	    0.021192	   -0.021052	   -0.082493	    0.030144	   -0.052349	   -0.025147	    0.005050	   -0.020097	   -0.003843	   -0.009184	   -0.013026	   -0.006404	   -0.006181	   -0.012585	   -0.054189	    0.029527	   -0.024662	   -0.105980	    0.059530	   -0.046450	   -0.082658	    0.052341	   -0.030317	   -0.091249	    0.071645	   -0.019603	   -0.048862	    0.030612	   -0.018250	   -0.001260	   -0.016720	   -0.017980
     3.300	0	0	    0	   -0.025822	    0.012789	   -0.013032	   -0.072343	    0.058703	   -0.013640	   -0.044258	    0.034701	   -0.009558	   -0.009882	    0.000151	   -0.009732	   -0.025246	    0.011727	   -0.013519	   -0.030526	   -0.003821	   -0.034347	   -0.006168	   -0.010683	   -0.016852	   -0.017465	   -0.006160	   -0.023625	   -0.033012	    0.018639	   -0.014373	   -0.111367	    0.067122	   -0.044244	   -0.037323	    0.027790	   -0.009532	   -0.043515	    0.020603	   -0.022912	   -0.087581	    0.028037	   -0.059544	   -0.026725	    0.003257	   -0.023469	   -0.005100	   -0.008873	   -0.013973	   -0.007632	   -0.006513	   -0.014145	   -0.059247	    0.029478	   -0.029769	   -0.113629	    0.059853	   -0.053776	   -0.090514	    0.052562	   -0.037952	   -0.098532	    0.070939	   -0.027593	   -0.052655	    0.028685	   -0.023970	   -0.004127	   -0.015868	   -0.019995
     3.375	0	0	    0	   -0.025054	    0.012113	   -0.012941	   -0.077872	    0.058644	   -0.019228	   -0.045527	    0.034280	   -0.011248	   -0.012282	    0.001750	   -0.010532	   -0.027469	    0.011694	   -0.015775	   -0.032246	   -0.001980	   -0.034226	   -0.010058	   -0.006899	   -0.016957	   -0.016111	   -0.007081	   -0.023192	   -0.037041	    0.019487	   -0.017554	   -0.117644	    0.068061	   -0.049584	   -0.040645	    0.028823	   -0.011822	   -0.047616	    0.021032	   -0.026583	   -0.092794	    0.029611	   -0.063183	   -0.023917	   -0.001996	   -0.025912	   -0.007394	   -0.006808	   -0.014203	   -0.009099	   -0.006727	   -0.015826	   -0.065735	    0.031663	   -0.034073	   -0.120675	    0.060002	   -0.060674	   -0.095326	    0.051821	   -0.043504	   -0.106571	    0.070870	   -0.035701	   -0.059764	    0.029559	   -0.030205	   -0.008004	   -0.013394	   -0.021398
     3.450	0	0	    0	   -0.018989	    0.010990	   -0.007999	   -0.069560	    0.055811	   -0.013749	   -0.045638	    0.034257	   -0.011381	   -0.008605	   -0.001552	   -0.010157	   -0.025070	    0.012497	   -0.012573	   -0.029327	   -0.001918	   -0.031245	   -0.006110	   -0.006868	   -0.012978	   -0.012405	   -0.004466	   -0.016871	   -0.033521	    0.017516	   -0.016005	   -0.110118	    0.066125	   -0.043994	   -0.039787	    0.028135	   -0.011652	   -0.039186	    0.019569	   -0.019617	   -0.087763	    0.024663	   -0.063100	   -0.023407	    0.003561	   -0.019846	    0.000087	   -0.010163	   -0.010076	   -0.006950	   -0.008100	   -0.015050	   -0.060547	    0.026967	   -0.033580	   -0.109328	    0.056052	   -0.053276	   -0.089665	    0.048266	   -0.041400	   -0.106421	    0.067138	   -0.039283	   -0.051495	    0.024574	   -0.026921	   -0.002157	   -0.017449	   -0.019606
     3.525	0	0	    0	   -0.020553	    0.012594	   -0.007959	   -0.061046	    0.061170	    0.000124	   -0.041563	    0.034967	   -0.006597	   -0.010471	    0.001657	   -0.008813	   -0.023240	    0.011886	   -0.011354	   -0.023793	   -0.001892	   -0.025685	    0.002545	   -0.006198	   -0.003653	   -0.011574	   -0.003239	   -0.014812	   -0.027448	    0.020722	   -0.006726	   -0.097750	    0.074014	   -0.023736	   -0.034058	    0.029824	   -0.004233	   -0.034437	    0.022775	   -0.011662	   -0.074660	    0.032720	   -0.041940	   -0.016183	    0.005592	   -0.010591	   -0.000062	   -0.007830	   -0.007892	   -0.004023	   -0.006408	   -0.010431	   -0.047134	    0.032043	   -0.015091	   -0.097481	    0.064546	   -0.032935	   -0.072128	    0.055805	   -0.016323	   -0.082521	    0.071116	   -0.011405	   -0.038779	    0.030809	   -0.007970	   -0.000947	   -0.015172	   -0.016119
     3.600	0	0	    0	   -0.021721	    0.010677	   -0.011044	   -0.060121	    0.063088	    0.002966	   -0.040562	    0.035828	   -0.004733	   -0.009877	    0.000474	   -0.009403	   -0.024177	    0.012545	   -0.011632	   -0.023422	    0.001415	   -0.022007	   -0.002385	   -0.008274	   -0.010659	   -0.011428	   -0.004228	   -0.015656	   -0.026467	    0.020777	   -0.005690	   -0.094115	    0.076542	   -0.017573	   -0.032425	    0.031377	   -0.001048	   -0.034590	    0.022971	   -0.011619	   -0.071694	    0.037522	   -0.034172	   -0.017275	    0.006020	   -0.011255	   -0.001728	   -0.007150	   -0.008879	   -0.003977	   -0.006390	   -0.010366	   -0.046126	    0.037811	   -0.008316	   -0.097698	    0.067575	   -0.030123	   -0.070113	    0.057857	   -0.012256	   -0.079103	    0.076748	   -0.002355	   -0.037365	    0.034857	   -0.002507	   -0.001736	   -0.014590	   -0.016326
     3.675	0	0	    0	   -0.023007	    0.009151	   -0.013856	   -0.062362	    0.064041	    0.001679	   -0.042221	    0.037796	   -0.004424	   -0.010658	    0.001640	   -0.009018	   -0.023769	    0.014017	   -0.009753	   -0.021641	    0.002434	   -0.019207	   -0.005049	   -0.003895	   -0.008944	   -0.012490	   -0.004044	   -0.016535	   -0.028814	    0.022677	   -0.006137	   -0.098602	    0.078759	   -0.019842	   -0.032212	    0.031208	   -0.001004	   -0.035472	    0.023803	   -0.011669	   -0.072987	    0.037502	   -0.035485	   -0.019359	    0.006845	   -0.012514	   -0.003267	   -0.005073	   -0.008340	   -0.004506	   -0.006321	   -0.010827	   -0.046692	    0.040154	   -0.006539	   -0.100903	    0.068144	   -0.032759	   -0.073121	    0.058663	   -0.014458	   -0.084508	    0.081072	   -0.003436	   -0.036916	    0.034060	   -0.002856	   -0.004082	   -0.013119	   -0.017201
     3.750	0	0	    0	   -0.024087	    0.008035	   -0.016052	   -0.061630	    0.063792	    0.002161	   -0.039581	    0.035417	   -0.004164	   -0.007116	   -0.002688	   -0.009804	   -0.021551	    0.012869	   -0.008681	   -0.020870	    0.004035	   -0.016835	   -0.005687	   -0.005583	   -0.011270	   -0.012737	   -0.003737	   -0.016474	   -0.027971	    0.020822	   -0.007150	   -0.096128	    0.078907	   -0.017221	   -0.032382	    0.031851	   -0.000531	   -0.033641	    0.023548	   -0.010093	   -0.072393	    0.038342	   -0.034051	   -0.018870	    0.005191	   -0.013680	   -0.003134	   -0.006056	   -0.009191	   -0.004983	   -0.006729	   -0.011713	   -0.045359	    0.040381	   -0.004978	   -0.100975	    0.068321	   -0.032654	   -0.073345	    0.059308	   -0.014038	   -0.085447	    0.080305	   -0.005143	   -0.039446	    0.035957	   -0.003488	   -0.004614	   -0.014054	   -0.018668
     3.825	0	0	    0	   -0.028088	    0.008095	   -0.019993	   -0.062082	    0.063918	    0.001836	   -0.041220	    0.036942	   -0.004278	   -0.009599	   -0.001165	   -0.010765	   -0.021315	    0.014326	   -0.006989	   -0.019797	    0.008535	   -0.011262	   -0.005445	   -0.008419	   -0.013864	   -0.014099	   -0.004593	   -0.018692	   -0.028318	    0.020066	   -0.008252	   -0.097798	    0.081477	   -0.016321	   -0.032581	    0.032995	    0.000413	   -0.035105	    0.024321	   -0.010784	   -0.070723	    0.039353	   -0.031370	   -0.019438	    0.005567	   -0.013871	   -0.005186	   -0.005018	   -0.010204	   -0.005039	   -0.007297	   -0.012336	   -0.044491	    0.042409	   -0.002082	   -0.104559	    0.069236	   -0.035323	   -0.077183	    0.060662	   -0.016522	   -0.085092	    0.078828	   -0.006264	   -0.037034	    0.033339	   -0.003695	   -0.003311	   -0.015963	   -0.019274
     3.900	0	0	    0	   -0.030489	    0.007329	   -0.023160	   -0.065930	    0.064550	   -0.001380	   -0.041259	    0.036301	   -0.004958	   -0.009929	   -0.001574	   -0.011503	   -0.021869	    0.015583	   -0.006287	   -0.016113	    0.007658	   -0.008455	   -0.005555	   -0.008614	   -0.014168	   -0.016861	   -0.003266	   -0.020127	   -0.030326	    0.019696	   -0.010629	   -0.102264	    0.081968	   -0.020296	   -0.033138	    0.032989	   -0.000148	   -0.037268	    0.024629	   -0.012639	   -0.074703	    0.040897	   -0.033807	   -0.020767	    0.004301	   -0.016466	   -0.002680	   -0.008107	   -0.010786	   -0.005997	   -0.007427	   -0.013425	   -0.045729	    0.042159	   -0.003570	   -0.110482	    0.068885	   -0.041597	   -0.082322	    0.059469	   -0.022853	   -0.090236	    0.078191	   -0.012045	   -0.043159	    0.036058	   -0.007101	   -0.006554	   -0.015720	   -0.022274
     3.975	0	0	    0	   -0.032935	    0.005288	   -0.027647	   -0.068995	    0.063516	   -0.005479	   -0.041926	    0.035497	   -0.006429	   -0.009877	   -0.004359	   -0.014236	   -0.018795	    0.015591	   -0.003204	   -0.014931	    0.008576	   -0.006355	   -0.004634	   -0.013362	   -0.017996	   -0.016971	   -0.004760	   -0.021731	   -0.033827	    0.020002	   -0.013825	   -0.106032	    0.080929	   -0.025104	   -0.034691	    0.033815	   -0.000876	   -0.037369	    0.023783	   -0.013586	   -0.079469	    0.041506	   -0.037963	   -0.021722	    0.000961	   -0.020761	   -0.004616	   -0.007525	   -0.012142	   -0.007266	   -0.007855	   -0.015121	   -0.050203	    0.042483	   -0.007720	   -0.117344	    0.068527	   -0.048817	   -0.088954	    0.058380	   -0.030574	   -0.099098	    0.079497	   -0.019601	   -0.046812	    0.034525	   -0.012286	   -0.008009	   -0.016092	   -0.024101
     4.050	0	0	    0	   -0.034988	    0.004419	   -0.030569	   -0.073564	    0.063749	   -0.009815	   -0.043496	    0.035500	   -0.007996	   -0.008998	   -0.005639	   -0.014638	   -0.020870	    0.017788	   -0.003082	   -0.011501	    0.014012	    0.002510	   -0.013113	   -0.010448	   -0.023561	   -0.018410	   -0.004611	   -0.023021	   -0.035875	    0.018950	   -0.016925	   -0.110194	    0.082678	   -0.027516	   -0.036480	    0.034506	   -0.001974	   -0.040385	    0.024536	   -0.015849	   -0.080407	    0.043167	   -0.037240	   -0.028303	    0.003235	   -0.025068	   -0.005387	   -0.006900	   -0.012287	   -0.008905	   -0.007973	   -0.016878	   -0.053792	    0.044182	   -0.009610	   -0.122107	    0.067031	   -0.055075	   -0.094563	    0.057023	   -0.037540	   -0.105837	    0.077937	   -0.027900	   -0.051426	    0.034024	   -0.017402	   -0.009882	   -0.016523	   -0.026405
     4.125	0	0	    0	   -0.037836	    0.006545	   -0.031291	   -0.078101	    0.062799	   -0.015302	   -0.044658	    0.035101	   -0.009558	   -0.013112	   -0.001354	   -0.014466	   -0.024616	    0.017322	   -0.007294	   -0.016700	    0.012192	   -0.004508	   -0.011037	   -0.013400	   -0.024437	   -0.020182	   -0.004258	   -0.024440	   -0.039881	    0.020173	   -0.019708	   -0.117544	    0.082555	   -0.034990	   -0.039482	    0.034133	   -0.005349	   -0.045664	    0.025465	   -0.020199	   -0.088477	    0.043326	   -0.045151	   -0.027277	   -0.000370	   -0.027647	   -0.004397	   -0.010491	   -0.014889	   -0.010394	   -0.008266	   -0.018660	   -0.058994	    0.045932	   -0.013062	   -0.127907	    0.067218	   -0.060689	   -0.098888	    0.056369	   -0.042519	   -0.113661	    0.078980	   -0.034681	   -0.057835	    0.034160	   -0.023674	   -0.007983	   -0.018423	   -0.026405
     4.200	0	0	    0	   -0.030873	    0.004598	   -0.026275	   -0.077637	    0.061167	   -0.016470	   -0.048378	    0.037370	   -0.011009	   -0.011904	   -0.002964	   -0.014868	   -0.024680	    0.015402	   -0.009278	   -0.020420	    0.010232	   -0.010188	   -0.009540	   -0.015561	   -0.025100	   -0.013785	   -0.005387	   -0.019172	   -0.040535	    0.019031	   -0.021504	   -0.116494	    0.079672	   -0.036823	   -0.041228	    0.033635	   -0.007593	   -0.043489	    0.022358	   -0.021131	   -0.092429	    0.039039	   -0.053391	   -0.025939	    0.000554	   -0.025385	   -0.003742	   -0.010247	   -0.013989	   -0.010476	   -0.008775	   -0.019251	   -0.060633	    0.043297	   -0.017336	   -0.125964	    0.065269	   -0.060695	   -0.102784	    0.056358	   -0.046426	   -0.119627	    0.077484	   -0.042143	   -0.057732	    0.032056	   -0.025676	   -0.005251	   -0.019811	   -0.025061
     4.275	0	0	    0	   -0.028589	    0.005925	   -0.022665	   -0.064324	    0.063471	   -0.000853	   -0.044643	    0.037749	   -0.006894	   -0.010359	   -0.002220	   -0.012579	   -0.023123	    0.015045	   -0.008078	   -0.016724	    0.010340	   -0.006384	   -0.006419	   -0.009308	   -0.015727	   -0.012968	   -0.003440	   -0.016408	   -0.032450	    0.020790	   -0.011660	   -0.101841	    0.084039	   -0.017803	   -0.035525	    0.034290	   -0.001235	   -0.035879	    0.024880	   -0.010999	   -0.076221	    0.040318	   -0.035902	   -0.015890	    0.003034	   -0.012856	   -0.003693	   -0.006045	   -0.009737	   -0.006320	   -0.008166	   -0.014486	   -0.047839	    0.046452	   -0.001387	   -0.108517	    0.069803	   -0.038713	   -0.080759	    0.057872	   -0.022887	   -0.098236	    0.076611	   -0.021625	   -0.041332	    0.033292	   -0.008040	   -0.003398	   -0.017099	   -0.020497
     4.350	0	0	    0	   -0.028580	    0.005628	   -0.022952	   -0.064220	    0.067297	    0.003077	   -0.042431	    0.037804	   -0.004627	   -0.010246	   -0.003041	   -0.013287	   -0.023001	    0.016378	   -0.006623	   -0.014200	    0.011145	   -0.003054	   -0.000608	   -0.013707	   -0.014315	   -0.013919	   -0.002684	   -0.016602	   -0.030838	    0.021832	   -0.009006	   -0.098036	    0.087172	   -0.010864	   -0.032614	    0.035047	    0.002433	   -0.035006	    0.026724	   -0.008282	   -0.072164	    0.045944	   -0.026221	   -0.015044	    0.002703	   -0.012342	   -0.001097	   -0.007616	   -0.008713	   -0.005402	   -0.007659	   -0.013062	   -0.042616	    0.049217	    0.006601	   -0.105257	    0.073273	   -0.031985	   -0.075344	    0.061851	   -0.013493	   -0.090359	    0.084836	   -0.005523	   -0.038364	    0.038547	    0.000183	    0.000255	   -0.020292	   -0.020037
     4.425	0	0	    0	   -0.031262	    0.006087	   -0.025175	   -0.064761	    0.067022	    0.002261	   -0.042850	    0.039203	   -0.003647	   -0.009515	   -0.003891	   -0.013405	   -0.021555	    0.016531	   -0.005024	   -0.015839	    0.013970	   -0.001868	   -0.006750	   -0.008536	   -0.015286	   -0.014529	   -0.002224	   -0.016753	   -0.031071	    0.022442	   -0.008629	   -0.100687	    0.088372	   -0.012315	   -0.033331	    0.035786	    0.002455	   -0.035212	    0.026936	   -0.008275	   -0.073124	    0.047422	   -0.025703	   -0.017554	    0.004178	   -0.013376	   -0.003186	   -0.005207	   -0.008393	   -0.005370	   -0.007912	   -0.013282	   -0.043699	    0.050283	    0.006584	   -0.109783	    0.075444	   -0.034339	   -0.080717	    0.065063	   -0.015653	   -0.092256	    0.087538	   -0.004718	   -0.037716	    0.037670	   -0.000046	   -0.003440	   -0.017444	   -0.020884
     4.500	0	0	    0	   -0.030549	    0.002128	   -0.028421	   -0.064530	    0.066429	    0.001899	   -0.043741	    0.040444	   -0.003297	   -0.010072	   -0.002587	   -0.012659	   -0.022677	    0.017076	   -0.005601	   -0.010165	    0.016372	    0.006207	   -0.013642	   -0.004920	   -0.018562	   -0.014157	   -0.002562	   -0.016718	   -0.031112	    0.021725	   -0.009386	   -0.098404	    0.089556	   -0.008848	   -0.033490	    0.036702	    0.003212	   -0.035773	    0.026520	   -0.009253	   -0.071815	    0.047584	   -0.024232	   -0.017239	    0.004864	   -0.012375	   -0.003043	   -0.007031	   -0.010074	   -0.006911	   -0.008119	   -0.015030	   -0.042529	    0.051742	    0.009213	   -0.110915	    0.073932	   -0.036983	   -0.081506	    0.063187	   -0.018319	   -0.095572	    0.085242	   -0.010330	   -0.039744	    0.037766	   -0.001978	   -0.004147	   -0.016041	   -0.020188
     4.575	0	0	    0	   -0.034053	    0.003233	   -0.030820	   -0.064045	    0.066912	    0.002868	   -0.042601	    0.039863	   -0.002738	   -0.011031	   -0.002069	   -0.013101	   -0.021200	    0.016909	   -0.004291	   -0.011059	    0.015082	    0.004022	   -0.002231	   -0.015272	   -0.017503	   -0.015193	   -0.002540	   -0.017733	   -0.030301	    0.021732	   -0.008570	   -0.098198	    0.090932	   -0.007265	   -0.033599	    0.036661	    0.003062	   -0.035603	    0.027152	   -0.008451	   -0.072631	    0.047643	   -0.024988	   -0.016675	    0.002364	   -0.014311	   -0.003103	   -0.007419	   -0.010522	   -0.007016	   -0.008871	   -0.015886	   -0.041390	    0.054286	    0.012896	   -0.112127	    0.075005	   -0.037123	   -0.081828	    0.063618	   -0.018209	   -0.093211	    0.084443	   -0.008767	   -0.039838	    0.037863	   -0.001976	   -0.003384	   -0.019434	   -0.022818
     4.650	0	0	    0	   -0.036938	    0.002673	   -0.034265	   -0.066779	    0.066904	    0.000126	   -0.042543	    0.039004	   -0.003540	   -0.010379	   -0.004142	   -0.014521	   -0.020206	    0.017145	   -0.003061	   -0.007235	    0.015572	    0.008336	   -0.003195	   -0.017874	   -0.021069	   -0.017259	   -0.003114	   -0.020373	   -0.032138	    0.021601	   -0.010537	   -0.101733	    0.091297	   -0.010436	   -0.035045	    0.038285	    0.003239	   -0.036949	    0.026745	   -0.010203	   -0.075759	    0.049286	   -0.026473	   -0.019023	    0.001029	   -0.017994	   -0.005043	   -0.005801	   -0.010844	   -0.008454	   -0.008893	   -0.017347	   -0.043960	    0.055008	    0.011048	   -0.118378	    0.074297	   -0.044081	   -0.088504	    0.063374	   -0.025130	   -0.100508	    0.086041	   -0.014467	   -0.043684	    0.038984	   -0.004700	   -0.006759	   -0.018325	   -0.025085
     4.725	0	0	    0	   -0.039422	    0.001356	   -0.038067	   -0.069750	    0.065786	   -0.003964	   -0.043230	    0.038987	   -0.004243	   -0.011077	   -0.003849	   -0.014925	   -0.020465	    0.018031	   -0.002434	   -0.009635	    0.020614	    0.010979	   -0.008152	   -0.013450	   -0.021602	   -0.019040	   -0.003551	   -0.022591	   -0.036086	    0.022608	   -0.013479	   -0.105861	    0.090914	   -0.014947	   -0.036371	    0.038281	    0.001910	   -0.039346	    0.027440	   -0.011906	   -0.079499	    0.049895	   -0.029604	   -0.021121	    0.001217	   -0.019905	   -0.005546	   -0.006636	   -0.012181	   -0.009923	   -0.009265	   -0.019188	   -0.048487	    0.055840	    0.007354	   -0.123542	    0.072756	   -0.050786	   -0.093808	    0.061846	   -0.031962	   -0.107863	    0.086194	   -0.021669	   -0.049135	    0.039027	   -0.010108	   -0.007252	   -0.019773	   -0.027025
     4.800	0	0	    0	   -0.041066	   -0.001332	   -0.042398	   -0.074168	    0.065800	   -0.008368	   -0.044058	    0.038667	   -0.005391	   -0.009390	   -0.007665	   -0.017055	   -0.018728	    0.018699	   -0.000030	   -0.006443	    0.019666	    0.013224	   -0.010789	   -0.016074	   -0.026863	   -0.019821	   -0.004843	   -0.024664	   -0.037313	    0.021023	   -0.016290	   -0.110996	    0.090550	   -0.020446	   -0.038267	    0.039021	    0.000753	   -0.040433	    0.026911	   -0.013522	   -0.084309	    0.049003	   -0.035306	   -0.024640	   -0.001706	   -0.026346	   -0.009823	   -0.004383	   -0.014206	   -0.010994	   -0.009859	   -0.020853	   -0.051036	    0.053240	    0.002203	   -0.132459	    0.073230	   -0.059229	   -0.102081	    0.062473	   -0.039608	   -0.114539	    0.084219	   -0.030320	   -0.052298	    0.036627	   -0.015671	   -0.014380	   -0.015641	   -0.030021
     4.875	0	0	    0	   -0.044319	   -0.000169	   -0.044488	   -0.076934	    0.064567	   -0.012366	   -0.044659	    0.037351	   -0.007307	   -0.011272	   -0.006208	   -0.017480	   -0.020151	    0.019630	   -0.000521	   -0.005865	    0.024276	    0.018411	   -0.013290	   -0.013981	   -0.027272	   -0.021237	   -0.004715	   -0.025952	   -0.039777	    0.020421	   -0.019356	   -0.113738	    0.089340	   -0.024398	   -0.039557	    0.039064	   -0.000493	   -0.043481	    0.027294	   -0.016186	   -0.087359	    0.050075	   -0.037284	   -0.026878	   -0.000663	   -0.027541	   -0.006119	   -0.008664	   -0.014783	   -0.012829	   -0.010094	   -0.022923	   -0.054601	    0.053840	   -0.000761	   -0.137049	    0.071570	   -0.065478	   -0.106143	    0.059820	   -0.046323	   -0.120603	    0.082697	   -0.037906	   -0.057148	    0.036787	   -0.020361	   -0.008625	   -0.020924	   -0.029549
     4.950	0	0	    0	   -0.040610	   -0.002393	   -0.043003	   -0.082537	    0.064801	   -0.017736	   -0.047407	    0.039295	   -0.008112	   -0.012772	   -0.004812	   -0.017584	   -0.023008	    0.020710	   -0.002299	   -0.006491	    0.024718	    0.018227	   -0.019917	   -0.010259	   -0.030176	   -0.018371	   -0.004267	   -0.022638	   -0.043142	    0.020115	   -0.023026	   -0.119541	    0.089716	   -0.029824	   -0.041749	    0.039441	   -0.002308	   -0.047823	    0.027737	   -0.020086	   -0.093394	    0.048711	   -0.044683	   -0.031432	    0.000955	   -0.030477	   -0.007818	   -0.008994	   -0.016812	   -0.014280	   -0.010611	   -0.024891	   -0.059971	    0.054644	   -0.005327	   -0.142120	    0.069945	   -0.072175	   -0.111537	    0.058570	   -0.052967	   -0.127885	    0.081546	   -0.046339	   -0.061656	    0.034809	   -0.026847	   -0.009975	   -0.022767	   -0.032742
     5.025	0	0	    0	   -0.036347	    0.000943	   -0.035404	   -0.070164	    0.063367	   -0.006797	   -0.046322	    0.040354	   -0.005969	   -0.012675	   -0.003163	   -0.015838	   -0.019361	    0.017463	   -0.001898	   -0.006453	    0.024120	    0.017667	   -0.012051	   -0.007942	   -0.019993	   -0.014433	   -0.001809	   -0.016242	   -0.036523	    0.019342	   -0.017182	   -0.106016	    0.087779	   -0.018237	   -0.040436	    0.037954	   -0.002482	   -0.038212	    0.024430	   -0.013782	   -0.085109	    0.044973	   -0.040136	   -0.022530	    0.003533	   -0.018998	   -0.003278	   -0.007967	   -0.011245	   -0.011445	   -0.011378	   -0.022823	   -0.051747	    0.053886	    0.002140	   -0.124149	    0.069530	   -0.054619	   -0.100632	    0.056884	   -0.043748	   -0.122177	    0.078971	   -0.043206	   -0.049147	    0.032337	   -0.016810	   -0.006252	   -0.021682	   -0.027934
     5.100	0	0	    0	   -0.034500	    0.000426	   -0.034074	   -0.062237	    0.067101	    0.004864	   -0.042940	    0.041384	   -0.001556	   -0.010330	   -0.004127	   -0.014457	   -0.019796	    0.019911	    0.000115	   -0.000783	    0.024450	    0.023667	   -0.004750	   -0.013552	   -0.018302	   -0.013621	   -0.002437	   -0.016057	   -0.029689	    0.020653	   -0.009036	   -0.096283	    0.093802	   -0.002481	   -0.035388	    0.039917	    0.004528	   -0.034900	    0.028001	   -0.006899	   -0.071048	    0.051718	   -0.019330	   -0.015284	    0.000840	   -0.014444	   -0.002679	   -0.006032	   -0.008711	   -0.008900	   -0.010507	   -0.019407	   -0.037497	    0.056865	    0.019369	   -0.113185	    0.076322	   -0.036863	   -0.085348	    0.063322	   -0.022026	   -0.099464	    0.083945	   -0.015519	   -0.037089	    0.037337	    0.000248	   -0.007617	   -0.018879	   -0.026495
     5.175	0	0	    0	   -0.036951	    0.000938	   -0.036013	   -0.060427	    0.068418	    0.007991	   -0.041247	    0.041592	    0.000345	   -0.008841	   -0.005414	   -0.014254	   -0.016082	    0.019616	    0.003534	    0.001600	    0.028100	    0.029700	   -0.008392	   -0.009317	   -0.017709	   -0.014522	   -0.002677	   -0.017200	   -0.030069	    0.022624	   -0.007445	   -0.093262	    0.095472	    0.002210	   -0.033953	    0.041600	    0.007647	   -0.032140	    0.029284	   -0.002856	   -0.066621	    0.053067	   -0.013554	   -0.014134	    0.000075	   -0.014059	   -0.005119	   -0.004427	   -0.009547	   -0.009306	   -0.009971	   -0.019278	   -0.035524	    0.059050	    0.023525	   -0.112123	    0.077925	   -0.034198	   -0.084099	    0.066171	   -0.017929	   -0.095815	    0.089006	   -0.006809	   -0.035199	    0.040120	    0.004922	   -0.006748	   -0.018020	   -0.024768
     5.250	0	0	    0	   -0.036941	    0.000648	   -0.036293	   -0.060985	    0.068369	    0.007384	   -0.041190	    0.042138	    0.000947	   -0.011014	   -0.002921	   -0.013935	   -0.016520	    0.020775	    0.004255	    0.003499	    0.028181	    0.031680	   -0.007358	   -0.010605	   -0.017963	   -0.016129	   -0.001490	   -0.017619	   -0.031330	    0.022999	   -0.008332	   -0.095425	    0.097215	    0.001790	   -0.033271	    0.041215	    0.007944	   -0.032392	    0.029937	   -0.002455	   -0.070103	    0.057830	   -0.012274	   -0.015803	    0.000890	   -0.014913	   -0.002304	   -0.006914	   -0.009218	   -0.010045	   -0.010399	   -0.020444	   -0.037779	    0.061950	    0.024171	   -0.114316	    0.077818	   -0.036498	   -0.086538	    0.066343	   -0.020195	   -0.100277	    0.091409	   -0.008869	   -0.038811	    0.042325	    0.003514	   -0.006708	   -0.020169	   -0.026878
     5.325	0	0	    0	   -0.036771	    0.000296	   -0.036475	   -0.060091	    0.068328	    0.008237	   -0.040814	    0.041801	    0.000987	   -0.008289	   -0.004932	   -0.013221	   -0.014873	    0.020779	    0.005905	    0.004229	    0.031634	    0.035863	   -0.010532	   -0.010129	   -0.020661	   -0.015292	   -0.002414	   -0.017705	   -0.030597	    0.022859	   -0.007738	   -0.092399	    0.096276	    0.003877	   -0.032778	    0.042172	    0.009394	   -0.030583	    0.029697	   -0.000886	   -0.066818	    0.055212	   -0.011606	   -0.022352	    0.007051	   -0.015301	   -0.004323	   -0.005580	   -0.009903	   -0.010319	   -0.010620	   -0.020939	   -0.036624	    0.061496	    0.024872	   -0.114619	    0.078846	   -0.035773	   -0.085874	    0.065787	   -0.020087	   -0.100472	    0.091005	   -0.009467	   -0.037231	    0.039549	    0.002318	   -0.008023	   -0.018765	   -0.026788
     5.400	0	0	    0	   -0.038436	   -0.000517	   -0.038953	   -0.060610	    0.068230	    0.007620	   -0.039664	    0.041392	    0.001728	   -0.007410	   -0.006556	   -0.013966	   -0.014904	    0.022706	    0.007802	    0.007500	    0.029812	    0.037312	   -0.006486	   -0.013093	   -0.019578	   -0.017133	   -0.003056	   -0.020189	   -0.031073	    0.022263	   -0.008810	   -0.092824	    0.096262	    0.003438	   -0.032347	    0.042814	    0.010467	   -0.031891	    0.030873	   -0.001019	   -0.068794	    0.057723	   -0.011071	   -0.016218	    0.000574	   -0.015644	   -0.003188	   -0.006867	   -0.010055	   -0.010776	   -0.010988	   -0.021764	   -0.038182	    0.062458	    0.024276	   -0.116552	    0.077785	   -0.038767	   -0.089814	    0.066120	   -0.023694	   -0.101935	    0.091268	   -0.010666	   -0.039915	    0.041514	    0.001599	   -0.006134	   -0.020530	   -0.026663
     5.475	0	0	    0	   -0.040792	   -0.002787	   -0.043578	   -0.063127	    0.067390	    0.004263	   -0.039069	    0.039665	    0.000596	   -0.006017	   -0.009596	   -0.015613	   -0.011773	    0.025422	    0.013649	    0.012734	    0.030245	    0.042980	   -0.008924	   -0.015340	   -0.024264	   -0.017981	   -0.003836	   -0.021817	   -0.031979	    0.020839	   -0.011141	   -0.096617	    0.095892	   -0.000725	   -0.032412	    0.042818	    0.010405	   -0.031239	    0.032003	    0.000765	   -0.069726	    0.055967	   -0.013759	   -0.017391	   -0.001863	   -0.019253	   -0.005955	   -0.006050	   -0.012005	   -0.011893	   -0.011420	   -0.023313	   -0.038434	    0.060064	    0.021630	   -0.124051	    0.077786	   -0.046265	   -0.097469	    0.064936	   -0.032533	   -0.106573	    0.089679	   -0.016894	   -0.042879	    0.040075	   -0.002804	   -0.007637	   -0.021094	   -0.028731
     5.550	0	0	    0	   -0.041682	   -0.002203	   -0.043885	   -0.067049	    0.066733	   -0.000316	   -0.040675	    0.039788	   -0.000887	   -0.007717	   -0.007097	   -0.014814	   -0.014148	    0.024964	    0.010816	    0.008068	    0.037500	    0.045569	   -0.009776	   -0.017335	   -0.027112	   -0.020576	   -0.002265	   -0.022840	   -0.034626	    0.020358	   -0.014268	   -0.101162	    0.095763	   -0.005399	   -0.035584	    0.043580	    0.007996	   -0.035137	    0.032123	   -0.003014	   -0.074340	    0.059516	   -0.014824	   -0.019072	   -0.002632	   -0.021705	   -0.007792	   -0.005410	   -0.013203	   -0.013429	   -0.011684	   -0.025113	   -0.043435	    0.061581	    0.018147	   -0.128503	    0.077127	   -0.051375	   -0.101898	    0.063964	   -0.037934	   -0.114103	    0.089379	   -0.024724	   -0.048824	    0.039884	   -0.008940	   -0.011270	   -0.019041	   -0.030312
     5.625	0	0	    0	   -0.043752	   -0.002188	   -0.045940	   -0.071311	    0.065891	   -0.005421	   -0.041856	    0.040074	   -0.001782	   -0.007983	   -0.007875	   -0.015857	   -0.015562	    0.023742	    0.008181	    0.006521	    0.032504	    0.039025	   -0.007945	   -0.019310	   -0.027256	   -0.021585	   -0.002964	   -0.024549	   -0.038000	    0.020816	   -0.017184	   -0.106719	    0.093386	   -0.013334	   -0.037705	    0.043550	    0.005845	   -0.037489	    0.030991	   -0.006497	   -0.081636	    0.057277	   -0.024359	   -0.026615	   -0.000614	   -0.027230	   -0.008129	   -0.005893	   -0.014022	   -0.014467	   -0.011821	   -0.026289	   -0.046847	    0.057984	    0.011137	   -0.134108	    0.076341	   -0.057767	   -0.108268	    0.064163	   -0.044105	   -0.119287	    0.087746	   -0.031542	   -0.053878	    0.037871	   -0.016007	   -0.011431	   -0.021268	   -0.032698
     5.700	0	0	    0	   -0.047193	   -0.002119	   -0.049311	   -0.075542	    0.065877	   -0.009666	   -0.042937	    0.039444	   -0.003493	   -0.010518	   -0.006513	   -0.017031	   -0.014631	    0.024073	    0.009441	    0.005007	    0.033108	    0.038115	   -0.010763	   -0.019571	   -0.030334	   -0.023040	   -0.003523	   -0.026563	   -0.040922	    0.020454	   -0.020468	   -0.111019	    0.093135	   -0.017884	   -0.039424	    0.043402	    0.003978	   -0.038895	    0.031499	   -0.007396	   -0.085074	    0.055033	   -0.030041	   -0.026102	   -0.003662	   -0.029764	   -0.007368	   -0.008358	   -0.015726	   -0.016032	   -0.011779	   -0.027811	   -0.052682	    0.058397	    0.005715	   -0.140284	    0.075019	   -0.065265	   -0.114579	    0.063671	   -0.050908	   -0.127961	    0.088294	   -0.039668	   -0.058479	    0.036453	   -0.022026	   -0.012037	   -0.021251	   -0.033288
     5.775	0	0	    0	   -0.045886	   -0.003095	   -0.048980	   -0.079458	    0.064780	   -0.014678	   -0.044809	    0.040016	   -0.004794	   -0.009069	   -0.009345	   -0.018413	   -0.013240	    0.024586	    0.011345	    0.005197	    0.033508	    0.038705	   -0.015699	   -0.014508	   -0.030207	   -0.021094	   -0.003717	   -0.024810	   -0.043635	    0.020263	   -0.023372	   -0.114325	    0.091854	   -0.022472	   -0.040920	    0.044234	    0.003314	   -0.040439	    0.031805	   -0.008634	   -0.090807	    0.055860	   -0.034947	   -0.032905	    0.000430	   -0.032475	   -0.005207	   -0.010767	   -0.015973	   -0.017481	   -0.012094	   -0.029574	   -0.056334	    0.058097	    0.001763	   -0.145445	    0.073446	   -0.071999	   -0.119370	    0.061034	   -0.058336	   -0.134729	    0.087763	   -0.046966	   -0.063312	    0.036527	   -0.026785	   -0.009371	   -0.024801	   -0.034173
     5.850	0	0	    0	   -0.040373	   -0.002485	   -0.042858	   -0.065638	    0.062045	   -0.003594	   -0.042869	    0.039320	   -0.003550	   -0.008241	   -0.008464	   -0.016706	   -0.010169	    0.025149	    0.014980	    0.009533	    0.034502	    0.044035	   -0.007803	   -0.014612	   -0.022415	   -0.015848	   -0.002996	   -0.018844	   -0.036694	    0.017808	   -0.018886	   -0.102141	    0.090940	   -0.011202	   -0.037301	    0.043453	    0.006153	   -0.029163	    0.029673	    0.000509	   -0.079778	    0.053292	   -0.026486	   -0.018668	   -0.000715	   -0.019384	   -0.003392	   -0.008127	   -0.011519	   -0.014079	   -0.013638	   -0.027717	   -0.047240	    0.055905	    0.008666	   -0.128076	    0.071733	   -0.056343	   -0.107357	    0.057308	   -0.050049	   -0.126274	    0.079929	   -0.046345	   -0.050315	    0.031687	   -0.018628	   -0.008512	   -0.019772	   -0.028283
     5.925	0	0	    0	   -0.040564	   -0.002593	   -0.043157	   -0.056179	    0.066302	    0.010123	   -0.037068	    0.039403	    0.002335	   -0.007867	   -0.008775	   -0.016642	   -0.006713	    0.026567	    0.019854	    0.019836	    0.036571	    0.056407	   -0.002608	   -0.020758	   -0.023366	   -0.016178	   -0.001517	   -0.017694	   -0.030405	    0.020323	   -0.010082	   -0.086421	    0.096400	    0.009980	   -0.030278	    0.046020	    0.015742	   -0.022024	    0.033718	    0.011693	   -0.062233	    0.059547	   -0.002686	   -0.012902	   -0.002036	   -0.014938	   -0.004781	   -0.006842	   -0.011623	   -0.011968	   -0.011769	   -0.023737	   -0.035303	    0.061481	    0.026178	   -0.114992	    0.078288	   -0.036704	   -0.089823	    0.063083	   -0.026740	   -0.103404	    0.087719	   -0.015686	   -0.037481	    0.036624	   -0.000857	   -0.005095	   -0.022535	   -0.027630
     6.000	0	0	    0	   -0.040931	   -0.003295	   -0.044226	   -0.053341	    0.067187	    0.013845	   -0.034691	    0.038400	    0.003709	   -0.005579	   -0.011433	   -0.017012	   -0.004261	    0.029371	    0.025110	    0.020641	    0.041748	    0.062389	   -0.002320	   -0.022050	   -0.024370	   -0.016499	   -0.002309	   -0.018808	   -0.028579	    0.020256	   -0.008323	   -0.083616	    0.098802	    0.015186	   -0.027036	    0.046240	    0.019204	   -0.019496	    0.035346	    0.015850	   -0.057621	    0.064222	    0.006601	   -0.012842	   -0.001086	   -0.013928	   -0.001461	   -0.010356	   -0.011817	   -0.011390	   -0.012101	   -0.023491	   -0.031696	    0.061147	    0.029451	   -0.111890	    0.079559	   -0.032331	   -0.085504	    0.065326	   -0.020178	   -0.096596	    0.089995	   -0.006602	   -0.035398	    0.039442	    0.004045	   -0.005580	   -0.021060	   -0.026640
     6.075	0	0	    0	   -0.041037	   -0.004260	   -0.045297	   -0.053877	    0.067996	    0.014119	   -0.032952	    0.038084	    0.005132	   -0.004881	   -0.012067	   -0.016948	    0.001314	    0.029377	    0.030692	    0.021242	    0.046902	    0.068144	   -0.004445	   -0.019719	   -0.024164	   -0.016918	   -0.002000	   -0.018918	   -0.029509	    0.020710	   -0.008799	   -0.083117	    0.100183	    0.017066	   -0.024377	    0.046552	    0.022175	   -0.015948	    0.035532	    0.019585	   -0.056346	    0.065756	    0.009410	   -0.016989	    0.002014	   -0.014975	   -0.003761	   -0.007668	   -0.011429	   -0.012011	   -0.011966	   -0.023976	   -0.032111	    0.063545	    0.031434	   -0.113392	    0.079686	   -0.033706	   -0.087050	    0.065167	   -0.021883	   -0.097912	    0.092134	   -0.005778	   -0.036040	    0.039419	    0.003379	   -0.005425	   -0.021609	   -0.027034
     6.150	0	0	    0	   -0.041686	   -0.003300	   -0.044986	   -0.052691	    0.068564	    0.015873	   -0.030224	    0.036906	    0.006682	   -0.002852	   -0.014903	   -0.017755	    0.000815	    0.034843	    0.035658	    0.027468	    0.048735	    0.076203	   -0.008044	   -0.016395	   -0.024438	   -0.016910	   -0.002453	   -0.019363	   -0.028545	    0.021024	   -0.007521	   -0.078462	    0.102862	    0.024399	   -0.022661	    0.047405	    0.024744	   -0.014108	    0.038622	    0.024514	   -0.053613	    0.067129	    0.013516	   -0.019037	    0.002653	   -0.016385	   -0.004754	   -0.006128	   -0.010882	   -0.011852	   -0.012356	   -0.024208	   -0.031357	    0.060151	    0.028794	   -0.111733	    0.077372	   -0.034361	   -0.085486	    0.064202	   -0.021284	   -0.097868	    0.091517	   -0.006351	   -0.036682	    0.038645	    0.001964	   -0.004840	   -0.022103	   -0.026944
     6.225	0	0	    0	   -0.042388	   -0.004257	   -0.046645	   -0.052481	    0.068160	    0.015678	   -0.028398	    0.036454	    0.008057	   -0.000433	   -0.016368	   -0.016801	    0.003818	    0.036806	    0.040624	    0.031851	    0.048936	    0.080787	   -0.008124	   -0.016986	   -0.025111	   -0.017257	   -0.003472	   -0.020729	   -0.029749	    0.021739	   -0.008011	   -0.079684	    0.102586	    0.022902	   -0.021907	    0.049024	    0.027117	   -0.012468	    0.039924	    0.027455	   -0.052760	    0.067797	    0.015037	   -0.016196	    0.000723	   -0.015473	   -0.006877	   -0.004960	   -0.011837	   -0.012340	   -0.011999	   -0.024340	   -0.034981	    0.063664	    0.028683	   -0.115522	    0.078697	   -0.036825	   -0.088434	    0.065135	   -0.023298	   -0.098839	    0.094453	   -0.004385	   -0.038285	    0.039866	    0.001581	   -0.007816	   -0.019108	   -0.026924
     6.300	0	0	    0	   -0.044703	   -0.006285	   -0.050988	   -0.055057	    0.067843	    0.012786	   -0.028055	    0.036158	    0.008103	   -0.002567	   -0.015265	   -0.017833	    0.009243	    0.042931	    0.052174	    0.037578	    0.051167	    0.088744	   -0.011180	   -0.019018	   -0.030198	   -0.018645	   -0.002420	   -0.021064	   -0.030843	    0.019988	   -0.010855	   -0.082285	    0.101422	    0.019137	   -0.021767	    0.049239	    0.027472	   -0.012064	    0.043944	    0.031880	   -0.053979	    0.068448	    0.014470	   -0.018078	   -0.000945	   -0.019023	   -0.006768	   -0.006653	   -0.013421	   -0.013390	   -0.011878	   -0.025268	   -0.036286	    0.059798	    0.023513	   -0.121016	    0.077263	   -0.043753	   -0.093838	    0.064006	   -0.029832	   -0.103198	    0.093286	   -0.009912	   -0.040758	    0.038008	   -0.002750	   -0.009992	   -0.018562	   -0.028554
     6.375	0	0	    0	   -0.045529	   -0.007668	   -0.053196	   -0.058850	    0.067703	    0.008853	   -0.027396	    0.034299	    0.006903	   -0.000701	   -0.017870	   -0.018571	    0.008592	    0.045761	    0.054354	    0.040071	    0.060071	    0.100142	   -0.011134	   -0.019807	   -0.030941	   -0.018789	   -0.002500	   -0.021289	   -0.034361	    0.020583	   -0.013778	   -0.086854	    0.102570	    0.015716	   -0.022349	    0.048169	    0.025820	   -0.013802	    0.044912	    0.031110	   -0.055064	    0.072118	    0.017054	   -0.020200	   -0.001228	   -0.021428	   -0.006462	   -0.008112	   -0.014574	   -0.014432	   -0.012386	   -0.026818	   -0.041465	    0.061504	    0.020039	   -0.125677	    0.074954	   -0.050723	   -0.099155	    0.061153	   -0.038002	   -0.111828	    0.093312	   -0.018516	   -0.046595	    0.038145	   -0.008450	   -0.008110	   -0.022357	   -0.030467
     6.450	0	0	    0	   -0.049518	   -0.006312	   -0.055830	   -0.062379	    0.067031	    0.004652	   -0.028219	    0.034486	    0.006267	   -0.004127	   -0.015227	   -0.019354	    0.010668	    0.050549	    0.061217	    0.044529	    0.059797	    0.104327	   -0.014579	   -0.019963	   -0.034542	   -0.020533	   -0.002012	   -0.022545	   -0.035709	    0.019421	   -0.016288	   -0.089633	    0.101307	    0.011674	   -0.023250	    0.048637	    0.025387	   -0.015030	    0.046979	    0.031948	   -0.057308	    0.070826	    0.013517	   -0.025599	   -0.001648	   -0.027247	   -0.007956	   -0.007608	   -0.015564	   -0.015726	   -0.012593	   -0.028319	   -0.045408	    0.060785	    0.015376	   -0.131648	    0.074225	   -0.057423	   -0.106270	    0.060573	   -0.045697	   -0.118513	    0.092148	   -0.026365	   -0.050392	    0.035694	   -0.014698	   -0.011018	   -0.021079	   -0.032097
     6.525	0	0	    0	   -0.052771	   -0.006593	   -0.059363	   -0.066584	    0.066537	   -0.000048	   -0.029009	    0.033085	    0.004076	   -0.004367	   -0.015671	   -0.020038	    0.011127	    0.054207	    0.065334	    0.048124	    0.065734	    0.113858	   -0.018091	   -0.020314	   -0.038404	   -0.021947	   -0.001801	   -0.023748	   -0.039128	    0.019477	   -0.019651	   -0.093660	    0.100966	    0.007306	   -0.025230	    0.049253	    0.024022	   -0.015914	    0.048498	    0.032584	   -0.059466	    0.072363	    0.012897	   -0.028784	   -0.001964	   -0.030748	   -0.009027	   -0.008400	   -0.017427	   -0.016766	   -0.013035	   -0.029801	   -0.047674	    0.059012	    0.011338	   -0.137571	    0.072490	   -0.065081	   -0.112809	    0.058668	   -0.054142	   -0.124755	    0.090209	   -0.034546	   -0.055227	    0.034377	   -0.020850	   -0.012046	   -0.021119	   -0.033165
     6.600	0	0	    0	   -0.052072	   -0.009199	   -0.061271	   -0.070768	    0.065643	   -0.005125	   -0.030582	    0.032633	    0.002051	   -0.005163	   -0.016008	   -0.021171	    0.013386	    0.056639	    0.070026	    0.045274	    0.070508	    0.115782	   -0.021062	   -0.019277	   -0.040339	   -0.022325	   -0.002771	   -0.025096	   -0.043005	    0.020012	   -0.022993	   -0.099155	    0.098468	   -0.000687	   -0.026295	    0.048813	    0.022517	   -0.017070	    0.049457	    0.032387	   -0.063822	    0.073588	    0.009766	   -0.032792	   -0.001659	   -0.034451	   -0.010573	   -0.007261	   -0.017833	   -0.018426	   -0.013132	   -0.031558	   -0.053450	    0.058340	    0.004890	   -0.143757	    0.072173	   -0.071583	   -0.119297	    0.058592	   -0.060704	   -0.132410	    0.090006	   -0.042405	   -0.060811	    0.033457	   -0.027353	   -0.014830	   -0.021338	   -0.036168
     6.675	0	0	    0	   -0.046951	   -0.008961	   -0.055911	   -0.064390	    0.062414	   -0.001976	   -0.030228	    0.031856	    0.001628	   -0.002608	   -0.019002	   -0.021609	    0.019486	    0.060162	    0.079648	    0.052664	    0.071606	    0.124270	   -0.019141	   -0.015603	   -0.034744	   -0.017113	   -0.002553	   -0.019666	   -0.039912	    0.016699	   -0.023212	   -0.093365	    0.096396	    0.003031	   -0.024341	    0.047702	    0.023360	   -0.006409	    0.048681	    0.042272	   -0.059084	    0.070790	    0.011706	   -0.026424	    0.001077	   -0.025346	   -0.007497	   -0.006772	   -0.014269	   -0.017137	   -0.014238	   -0.031375	   -0.052053	    0.055233	    0.003180	   -0.133366	    0.067908	   -0.065458	   -0.112929	    0.052763	   -0.060167	   -0.133295	    0.084746	   -0.048550	   -0.056299	    0.030395	   -0.025904	   -0.009623	   -0.021058	   -0.030680
     6.750	0	0	    0	   -0.044918	   -0.007229	   -0.052146	   -0.051225	    0.067170	    0.015944	   -0.023401	    0.030573	    0.007172	   -0.000804	   -0.017009	   -0.017813	    0.019555	    0.063671	    0.083226	    0.061437	    0.076880	    0.138317	   -0.014278	   -0.015843	   -0.030121	   -0.016050	   -0.000830	   -0.016880	   -0.032237	    0.019730	   -0.012507	   -0.076307	    0.102395	    0.026088	   -0.015438	    0.049837	    0.034399	   -0.000027	    0.053284	    0.053257	   -0.036883	    0.078086	    0.041203	   -0.017841	    0.000571	   -0.017270	   -0.008723	   -0.003900	   -0.012623	   -0.013086	   -0.012906	   -0.025991	   -0.037127	    0.059564	    0.022437	   -0.113518	    0.074552	   -0.038966	   -0.087419	    0.057698	   -0.029721	   -0.106246	    0.087948	   -0.018297	   -0.041994	    0.035310	   -0.006684	   -0.009242	   -0.019300	   -0.028542
     6.825	0	0	    0	   -0.039519	   -0.004191	   -0.043710	   -0.049807	    0.069436	    0.019630	   -0.021023	    0.031442	    0.010420	    0.001365	   -0.012804	   -0.011439	    0.005415	    0.060691	    0.066106	    0.053109	    0.080587	    0.133695	   -0.007542	   -0.020789	   -0.028332	   -0.015869	   -0.000838	   -0.016707	   -0.030333	    0.020776	   -0.009557	   -0.074998	    0.104298	    0.029300	   -0.016088	    0.051691	    0.035604	   -0.006042	    0.053179	    0.047138	   -0.033320	    0.082342	    0.049022	   -0.019487	    0.003482	   -0.016005	   -0.006798	   -0.005712	   -0.012510	   -0.012085	   -0.012137	   -0.024222	   -0.033251	    0.062044	    0.028793	   -0.108033	    0.078008	   -0.030025	   -0.078040	    0.062638	   -0.015402	   -0.092652	    0.091146	   -0.001506	   -0.037214	    0.037506	    0.000292	   -0.006687	   -0.019999	   -0.026687
     6.900	0	0	    0	   -0.037744	    0.004529	   -0.033215	   -0.056079	    0.071413	    0.015334	   -0.025298	    0.041054	    0.015755	   -0.000006	   -0.002300	   -0.002306	    0.001561	    0.041274	    0.042835	    0.027900	    0.066896	    0.094796	   -0.008399	   -0.012089	   -0.020488	   -0.016321	   -0.000980	   -0.017301	   -0.029172	    0.020283	   -0.008888	   -0.088262	    0.103696	    0.015434	   -0.021511	    0.050421	    0.028910	   -0.010426	    0.045824	    0.035398	   -0.047859	    0.080144	    0.032285	   -0.015029	   -0.000220	   -0.015249	   -0.007424	   -0.004011	   -0.011435	   -0.010152	   -0.011492	   -0.021645	   -0.038068	    0.059487	    0.021418	   -0.105742	    0.084050	   -0.021691	   -0.073322	    0.071898	   -0.001424	   -0.092110	    0.094659	    0.002549	   -0.037935	    0.037935	    0.000000	   -0.007503	   -0.017277	   -0.024780
     6.975	0	0	    0	   -0.038075	    0.002429	   -0.035646	   -0.055057	    0.069982	    0.014926	   -0.025203	    0.044307	    0.019103	    0.001665	   -0.004755	   -0.003090	    0.001921	    0.041800	    0.043721	    0.032287	    0.058368	    0.090655	   -0.006969	   -0.016670	   -0.023639	   -0.016746	   -0.000127	   -0.016873	   -0.029279	    0.021532	   -0.007747	   -0.084336	    0.099174	    0.014838	   -0.019894	    0.050507	    0.030614	   -0.010552	    0.045413	    0.034861	   -0.048451	    0.070572	    0.022121	   -0.016552	    0.002815	   -0.013738	   -0.006911	   -0.005873	   -0.012784	   -0.010290	   -0.009336	   -0.019626	   -0.038744	    0.054809	    0.016065	   -0.108525	    0.083686	   -0.024839	   -0.076706	    0.071895	   -0.004811	   -0.097347	    0.096906	   -0.000440	   -0.037031	    0.037586	    0.000555	   -0.006322	   -0.020454	   -0.026776
     7.050	0	0	    0	   -0.038961	   -0.000203	   -0.039164	   -0.055033	    0.071242	    0.016209	   -0.025319	    0.046066	    0.020747	    0.002189	   -0.005770	   -0.003581	    0.004246	    0.044962	    0.049208	    0.037119	    0.056029	    0.093149	   -0.011425	   -0.009064	   -0.020489	   -0.016984	   -0.001422	   -0.018407	   -0.027441	    0.021832	   -0.005610	   -0.082058	    0.101118	    0.019060	   -0.018334	    0.050585	    0.032251	   -0.009678	    0.046109	    0.036432	   -0.048921	    0.072223	    0.023302	   -0.015068	    0.002219	   -0.012848	   -0.004474	   -0.006653	   -0.011127	   -0.010263	   -0.009893	   -0.020156	   -0.035635	    0.058367	    0.022732	   -0.109125	    0.083450	   -0.025675	   -0.078872	    0.071788	   -0.007084	   -0.097053	    0.096092	   -0.000961	   -0.036383	    0.038082	    0.001699	   -0.008032	   -0.018632	   -0.026664
     7.125	0	0	    0	   -0.041842	   -0.000218	   -0.042060	   -0.056280	    0.070152	    0.013872	   -0.024543	    0.044628	    0.020085	    0.000762	   -0.005101	   -0.004339	    0.006002	    0.044997	    0.050999	    0.039460	    0.060289	    0.099749	   -0.006978	   -0.018458	   -0.025435	   -0.018526	   -0.001160	   -0.019686	   -0.029275	    0.022548	   -0.006727	   -0.083505	    0.100117	    0.016612	   -0.018467	    0.051981	    0.033514	   -0.010945	    0.046992	    0.036046	   -0.049689	    0.073730	    0.024041	   -0.017752	    0.001498	   -0.016254	   -0.008304	   -0.004789	   -0.013093	   -0.011951	   -0.009347	   -0.021298	   -0.039015	    0.059389	    0.020374	   -0.115932	    0.083319	   -0.032614	   -0.085466	    0.070591	   -0.014875	   -0.102222	    0.095933	   -0.006288	   -0.040248	    0.039184	   -0.001064	   -0.005657	   -0.021872	   -0.027529
     7.200	0	0	    0	   -0.042508	   -0.000544	   -0.043051	   -0.060263	    0.070674	    0.010412	   -0.025820	    0.045171	    0.019352	    0.001918	   -0.006215	   -0.004297	    0.004166	    0.046434	    0.050600	    0.038943	    0.062185	    0.101127	   -0.010095	   -0.016585	   -0.026681	   -0.019965	   -0.000266	   -0.020231	   -0.030520	    0.021137	   -0.009383	   -0.087871	    0.100928	    0.013058	   -0.020791	    0.052869	    0.032077	   -0.013195	    0.046344	    0.033149	   -0.054296	    0.075180	    0.020885	   -0.024560	    0.003055	   -0.021506	   -0.007992	   -0.006254	   -0.014247	   -0.012994	   -0.010457	   -0.023452	   -0.040041	    0.058075	    0.018034	   -0.120582	    0.081509	   -0.039073	   -0.090519	    0.068721	   -0.021798	   -0.107356	    0.093637	   -0.013720	   -0.044342	    0.037930	   -0.006412	   -0.011320	   -0.019685	   -0.031004
     7.275	0	0	    0	   -0.044075	   -0.001236	   -0.045311	   -0.063485	    0.069957	    0.006472	   -0.025924	    0.044303	    0.018379	    0.000313	   -0.005047	   -0.004734	    0.001977	    0.046503	    0.048479	    0.037296	    0.063095	    0.100391	   -0.012876	   -0.017256	   -0.030132	   -0.020572	   -0.000380	   -0.020951	   -0.033380	    0.021733	   -0.011646	   -0.091288	    0.100178	    0.008890	   -0.022570	    0.053366	    0.030796	   -0.017174	    0.046638	    0.029463	   -0.057339	    0.072544	    0.015205	   -0.023632	    0.000608	   -0.023024	   -0.006382	   -0.008244	   -0.014626	   -0.014586	   -0.010323	   -0.024909	   -0.043372	    0.057920	    0.014548	   -0.127373	    0.080163	   -0.047210	   -0.096155	    0.066520	   -0.029635	   -0.114231	    0.093046	   -0.021185	   -0.048057	    0.036439	   -0.011618	   -0.008511	   -0.021809	   -0.030321
     7.350	0	0	    0	   -0.046529	   -0.001056	   -0.047585	   -0.067796	    0.069928	    0.002132	   -0.028870	    0.045709	    0.016839	    0.000640	   -0.006571	   -0.005932	    0.002708	    0.044761	    0.047469	    0.035183	    0.057960	    0.093143	   -0.018722	   -0.013458	   -0.032179	   -0.021004	   -0.000711	   -0.021715	   -0.035039	    0.021295	   -0.013744	   -0.095171	    0.099382	    0.004211	   -0.024983	    0.053861	    0.028878	   -0.018279	    0.045100	    0.026821	   -0.065498	    0.072100	    0.006602	   -0.026336	   -0.000090	   -0.026426	   -0.009876	   -0.005391	   -0.015267	   -0.015928	   -0.010792	   -0.026720	   -0.047824	    0.059185	    0.011362	   -0.134165	    0.080341	   -0.053824	   -0.104102	    0.067611	   -0.036491	   -0.120870	    0.092367	   -0.028504	   -0.053566	    0.036091	   -0.017475	   -0.012711	   -0.019710	   -0.032420
     7.425	0	0	    0	   -0.048665	   -0.001340	   -0.050006	   -0.070262	    0.068540	   -0.001723	   -0.028484	    0.044102	    0.015619	   -0.000859	   -0.005794	   -0.006653	   -0.000523	    0.046900	    0.046376	    0.034182	    0.063283	    0.097465	   -0.016457	   -0.015903	   -0.032360	   -0.023032	   -0.000297	   -0.023330	   -0.038004	    0.021458	   -0.016546	   -0.098800	    0.099400	    0.000600	   -0.026114	    0.053746	    0.027631	   -0.022570	    0.046247	    0.023678	   -0.066824	    0.069797	    0.002974	   -0.029896	    0.000833	   -0.029063	   -0.010411	   -0.004866	   -0.015277	   -0.017714	   -0.011160	   -0.028875	   -0.051291	    0.058447	    0.007156	   -0.139825	    0.077808	   -0.062017	   -0.109400	    0.064290	   -0.045110	   -0.127022	    0.090642	   -0.036381	   -0.056881	    0.034431	   -0.022450	   -0.012018	   -0.021515	   -0.033532
     7.500	0	0	    0	   -0.045441	   -0.003249	   -0.048691	   -0.074958	    0.068093	   -0.006865	   -0.029961	    0.043611	    0.013650	   -0.001154	   -0.007304	   -0.008458	   -0.000026	    0.044201	    0.044175	    0.027660	    0.059092	    0.086752	   -0.012301	   -0.022786	   -0.035087	   -0.019277	   -0.002460	   -0.021737	   -0.039412	    0.019651	   -0.019761	   -0.105006	    0.098268	   -0.006738	   -0.029558	    0.053405	    0.023847	   -0.023961	    0.044319	    0.020357	   -0.077875	    0.070686	   -0.007190	   -0.030121	   -0.004269	   -0.034390	   -0.010486	   -0.007195	   -0.017681	   -0.018712	   -0.012328	   -0.031040	   -0.053874	    0.055333	    0.001459	   -0.144602	    0.076294	   -0.068308	   -0.115761	    0.065347	   -0.050414	   -0.131910	    0.087900	   -0.044010	   -0.061882	    0.032694	   -0.029187	   -0.013442	   -0.021443	   -0.034885
     7.575	0	0	    0	   -0.042749	   -0.000514	   -0.043262	   -0.060674	    0.066249	    0.005574	   -0.027633	    0.043298	    0.015665	   -0.000944	   -0.005591	   -0.006536	    0.000882	    0.044788	    0.045670	    0.031907	    0.059242	    0.091150	   -0.008712	   -0.016283	   -0.024995	   -0.017183	   -0.000019	   -0.017202	   -0.033551	    0.019625	   -0.013926	   -0.089761	    0.096567	    0.006806	   -0.024216	    0.052165	    0.027949	   -0.014735	    0.044212	    0.029478	   -0.064335	    0.065901	    0.001566	   -0.020056	   -0.000965	   -0.021021	   -0.007312	   -0.005708	   -0.013020	   -0.015866	   -0.013267	   -0.029134	   -0.046861	    0.056432	    0.009571	   -0.126620	    0.075228	   -0.051392	   -0.099310	    0.060680	   -0.038630	   -0.123660	    0.083684	   -0.039977	   -0.049324	    0.030355	   -0.018969	   -0.007286	   -0.021849	   -0.029135
     7.650	0	0	    0	   -0.042859	   -0.001537	   -0.044395	   -0.055151	    0.071431	    0.016280	   -0.024383	    0.045293	    0.020910	    0.000950	   -0.006282	   -0.005331	    0.003961	    0.046071	    0.050032	    0.036603	    0.060410	    0.097013	   -0.010017	   -0.015994	   -0.026011	   -0.018083	    0.001078	   -0.017005	   -0.029338	    0.022604	   -0.006734	   -0.080373	    0.102091	    0.021718	   -0.018568	    0.054375	    0.035807	   -0.010080	    0.046825	    0.036745	   -0.052781	    0.072127	    0.019345	   -0.016605	   -0.001207	   -0.017812	   -0.004313	   -0.008984	   -0.013297	   -0.014221	   -0.011789	   -0.026011	   -0.036359	    0.061426	    0.025067	   -0.116654	    0.080498	   -0.036156	   -0.087334	    0.068351	   -0.018983	   -0.104605	    0.092267	   -0.012338	   -0.040112	    0.035887	   -0.004225	   -0.007077	   -0.021755	   -0.028832
     7.725	0	0	    0	   -0.042902	   -0.001347	   -0.044249	   -0.054799	    0.072530	    0.017731	   -0.023864	    0.046213	    0.022349	    0.000882	   -0.005414	   -0.004532	    0.001465	    0.045970	    0.047435	    0.035516	    0.063773	    0.099289	   -0.012150	   -0.013655	   -0.025805	   -0.017958	   -0.000237	   -0.018194	   -0.028459	    0.021886	   -0.006573	   -0.080471	    0.105342	    0.024871	   -0.018143	    0.055395	    0.037252	   -0.012060	    0.047469	    0.035410	   -0.050780	    0.075250	    0.024470	   -0.022588	    0.006807	   -0.015781	   -0.007102	   -0.005283	   -0.012385	   -0.014739	   -0.011921	   -0.026660	   -0.034883	    0.062660	    0.027776	   -0.116591	    0.082106	   -0.034485	   -0.086450	    0.070315	   -0.016135	   -0.100512	    0.094123	   -0.006389	   -0.038401	    0.036892	   -0.001509	   -0.008786	   -0.018768	   -0.027554
     7.800	0	0	    0	   -0.044009	   -0.001453	   -0.045462	   -0.055085	    0.071376	    0.016291	   -0.023670	    0.045757	    0.022088	    0.001505	   -0.006813	   -0.005308	    0.004504	    0.045537	    0.050041	    0.039800	    0.056378	    0.096178	   -0.012450	   -0.016030	   -0.028481	   -0.018119	   -0.000521	   -0.018640	   -0.030311	    0.022527	   -0.007783	   -0.080959	    0.103558	    0.022599	   -0.018343	    0.055265	    0.036922	   -0.010330	    0.046736	    0.036406	   -0.056018	    0.074352	    0.018334	   -0.018856	   -0.001275	   -0.020131	   -0.006505	   -0.007689	   -0.014195	   -0.015774	   -0.011680	   -0.027454	   -0.035473	    0.061266	    0.025792	   -0.118781	    0.081474	   -0.037307	   -0.088955	    0.068964	   -0.019991	   -0.104170	    0.093176	   -0.010994	   -0.041433	    0.037229	   -0.004205	   -0.008762	   -0.020643	   -0.029405
     7.875	0	0	    0	   -0.044316	   -0.001679	   -0.045995	   -0.053491	    0.071031	    0.017540	   -0.021680	    0.045108	    0.023429	    0.003357	   -0.006825	   -0.003468	    0.007211	    0.045595	    0.052806	    0.038778	    0.062894	    0.101672	   -0.012912	   -0.015538	   -0.028450	   -0.018482	    0.000160	   -0.018322	   -0.028408	    0.021140	   -0.007268	   -0.079042	    0.104582	    0.025540	   -0.016063	    0.055498	    0.039435	   -0.008515	    0.047693	    0.039178	   -0.052297	    0.074846	    0.022549	   -0.020168	    0.001008	   -0.019159	   -0.007250	   -0.006971	   -0.014221	   -0.015559	   -0.012200	   -0.027759	   -0.033337	    0.060341	    0.027003	   -0.118226	    0.081972	   -0.036254	   -0.087951	    0.069313	   -0.018638	   -0.103637	    0.093041	   -0.010596	   -0.040710	    0.037158	   -0.003552	   -0.008760	   -0.020207	   -0.028967
     7.950	0	0	    0	   -0.044453	   -0.004228	   -0.048681	   -0.054698	    0.071611	    0.016913	   -0.022255	    0.044719	    0.022464	    0.003107	   -0.008325	   -0.005218	    0.005800	    0.051658	    0.057457	    0.043505	    0.067468	    0.110974	   -0.013676	   -0.015621	   -0.029297	   -0.019804	    0.000152	   -0.019652	   -0.029432	    0.021418	   -0.008014	   -0.079723	    0.105173	    0.025450	   -0.015569	    0.056484	    0.040915	   -0.010027	    0.050224	    0.040197	   -0.050102	    0.075525	    0.025424	   -0.023208	    0.001401	   -0.021807	   -0.005106	   -0.008455	   -0.013562	   -0.016305	   -0.012219	   -0.028524	   -0.034980	    0.062233	    0.027253	   -0.121264	    0.080965	   -0.040300	   -0.092182	    0.068363	   -0.023819	   -0.106886	    0.095795	   -0.011091	   -0.041763	    0.037623	   -0.004140	   -0.010172	   -0.020531	   -0.030703
     8.025	0	0	    0	   -0.046947	   -0.003583	   -0.050530	   -0.058203	    0.071034	    0.012832	   -0.022436	    0.044152	    0.021716	    0.002222	   -0.007464	   -0.005242	    0.008790	    0.050287	    0.059078	    0.042800	    0.063542	    0.106343	   -0.012795	   -0.018449	   -0.031244	   -0.021481	    0.001213	   -0.020268	   -0.032528	    0.022319	   -0.010209	   -0.083591	    0.102964	    0.019373	   -0.017451	    0.056212	    0.038761	   -0.010004	    0.049992	    0.039987	   -0.056476	    0.076401	    0.019925	   -0.026228	    0.003546	   -0.022682	   -0.009088	   -0.005299	   -0.014387	   -0.017017	   -0.012492	   -0.029509	   -0.038554	    0.061841	    0.023288	   -0.126799	    0.080593	   -0.046206	   -0.096899	    0.067686	   -0.029213	   -0.111429	    0.095550	   -0.015879	   -0.046767	    0.038182	   -0.008585	   -0.011251	   -0.018871	   -0.030122
     8.100	0	0	    0	   -0.050013	   -0.003605	   -0.053619	   -0.063022	    0.071161	    0.008139	   -0.024656	    0.044419	    0.019763	    0.000999	   -0.007461	   -0.006462	    0.007636	    0.050840	    0.058476	    0.039299	    0.069498	    0.108797	   -0.022349	   -0.013631	   -0.035980	   -0.022228	   -0.000261	   -0.022489	   -0.034901	    0.021377	   -0.013524	   -0.089499	    0.104009	    0.014510	   -0.020292	    0.056905	    0.036613	   -0.012898	    0.049565	    0.036668	   -0.059614	    0.077256	    0.017642	   -0.030259	    0.001144	   -0.029116	   -0.012001	   -0.005763	   -0.017764	   -0.018636	   -0.012576	   -0.031212	   -0.044230	    0.062716	    0.018487	   -0.132933	    0.079966	   -0.052966	   -0.103826	    0.067348	   -0.036478	   -0.118401	    0.093992	   -0.024410	   -0.051612	    0.036949	   -0.014663	   -0.015225	   -0.018595	   -0.033820
     8.175	0	0	    0	   -0.050695	   -0.005224	   -0.055919	   -0.066517	    0.070337	    0.003820	   -0.024131	    0.042571	    0.018440	    0.001115	   -0.008807	   -0.007692	    0.006481	    0.052781	    0.059262	    0.042060	    0.066903	    0.108962	   -0.020720	   -0.020403	   -0.041123	   -0.023727	   -0.000468	   -0.024194	   -0.036962	    0.021047	   -0.015916	   -0.092183	    0.101738	    0.009555	   -0.022062	    0.057276	    0.035213	   -0.015615	    0.050168	    0.034553	   -0.063411	    0.075407	    0.011996	   -0.032474	   -0.000047	   -0.032521	   -0.013418	   -0.005296	   -0.018714	   -0.019824	   -0.012568	   -0.032392	   -0.046170	    0.059714	    0.013544	   -0.139388	    0.078761	   -0.060627	   -0.110322	    0.065178	   -0.045144	   -0.126154	    0.094261	   -0.031893	   -0.056176	    0.035259	   -0.020917	   -0.013851	   -0.022063	   -0.035914
     8.250	0	0	    0	   -0.054534	   -0.005479	   -0.060013	   -0.070785	    0.070222	   -0.000563	   -0.026898	    0.043153	    0.016254	   -0.001098	   -0.008911	   -0.010009	    0.008679	    0.054246	    0.062924	    0.040816	    0.066521	    0.107337	   -0.019835	   -0.021816	   -0.041651	   -0.024645	   -0.002442	   -0.027088	   -0.039495	    0.020709	   -0.018787	   -0.096669	    0.100706	    0.004036	   -0.024437	    0.056946	    0.032508	   -0.016828	    0.050425	    0.033598	   -0.068009	    0.074396	    0.006387	   -0.032960	   -0.000332	   -0.033292	   -0.011609	   -0.007551	   -0.019160	   -0.020453	   -0.013260	   -0.033713	   -0.049690	    0.058427	    0.008738	   -0.145325	    0.078244	   -0.067081	   -0.116849	    0.065038	   -0.051811	   -0.130479	    0.090991	   -0.039488	   -0.060504	    0.034372	   -0.026133	   -0.014954	   -0.019896	   -0.034850
     8.325	0	0	    0	   -0.051578	   -0.006710	   -0.058288	   -0.073438	    0.068553	   -0.004885	   -0.028777	    0.042603	    0.013826	   -0.002766	   -0.007750	   -0.010516	    0.009628	    0.055071	    0.064699	    0.041689	    0.071757	    0.113446	   -0.028004	   -0.014303	   -0.042306	   -0.023443	   -0.002625	   -0.026068	   -0.042722	    0.020267	   -0.022455	   -0.100451	    0.100657	    0.000206	   -0.026798	    0.056867	    0.030068	   -0.016966	    0.049837	    0.032871	   -0.071146	    0.074772	    0.003626	   -0.034746	   -0.002132	   -0.036878	   -0.011453	   -0.008338	   -0.019791	   -0.022048	   -0.013425	   -0.035473	   -0.054624	    0.059682	    0.005058	   -0.147817	    0.075072	   -0.072745	   -0.120614	    0.061439	   -0.059175	   -0.139582	    0.092240	   -0.047342	   -0.065624	    0.034398	   -0.031227	   -0.014248	   -0.021522	   -0.035770
     8.400	0	0	    0	   -0.046183	   -0.007511	   -0.053694	   -0.056868	    0.067559	    0.010691	   -0.023792	    0.039812	    0.016020	    0.001601	   -0.009942	   -0.008341	    0.012571	    0.058121	    0.070692	    0.048969	    0.070533	    0.119502	   -0.010773	   -0.022637	   -0.033409	   -0.019838	   -0.002054	   -0.021892	   -0.033806	    0.018598	   -0.015207	   -0.082834	    0.098928	    0.016094	   -0.018412	    0.055494	    0.037081	   -0.004412	    0.050980	    0.046569	   -0.054724	    0.071674	    0.016950	   -0.022484	   -0.000648	   -0.023132	   -0.008017	   -0.006349	   -0.014366	   -0.017898	   -0.014504	   -0.032402	   -0.041605	    0.056982	    0.015377	   -0.125123	    0.074797	   -0.050327	   -0.098918	    0.059291	   -0.039626	   -0.120760	    0.083606	   -0.037154	   -0.050253	    0.032617	   -0.017637	   -0.009011	   -0.021076	   -0.030088
     8.475	0	0	    0	   -0.046968	   -0.005984	   -0.052953	   -0.051317	    0.072151	    0.020834	   -0.020366	    0.040806	    0.020440	    0.004214	   -0.012408	   -0.008194	    0.020223	    0.059430	    0.079653	    0.052862	    0.072567	    0.125429	   -0.017429	   -0.012341	   -0.029770	   -0.019050	   -0.001201	   -0.020251	   -0.030494	    0.021933	   -0.008561	   -0.073781	    0.104418	    0.030637	   -0.012331	    0.057451	    0.045120	    0.002687	    0.053933	    0.056619	   -0.044006	    0.079384	    0.035378	   -0.021043	    0.000707	   -0.020336	   -0.007455	   -0.005545	   -0.013001	   -0.016300	   -0.013179	   -0.029479	   -0.032173	    0.060816	    0.028643	   -0.117413	    0.081298	   -0.036115	   -0.088054	    0.066278	   -0.021776	   -0.102714	    0.093583	   -0.009132	   -0.041211	    0.037084	   -0.004127	   -0.010051	   -0.019074	   -0.029126
     8.550	0	0	    0	   -0.048060	   -0.006148	   -0.054209	   -0.049867	    0.073299	    0.023432	   -0.018927	    0.040354	    0.021427	    0.003759	   -0.012261	   -0.008502	    0.021284	    0.064333	    0.085617	    0.057103	    0.080659	    0.137762	   -0.019649	   -0.014324	   -0.033973	   -0.020023	   -0.000589	   -0.020612	   -0.029036	    0.020962	   -0.008074	   -0.072051	    0.106990	    0.034939	   -0.011669	    0.058655	    0.046986	    0.003470	    0.056129	    0.059598	   -0.037056	    0.082794	    0.045738	   -0.021324	    0.001943	   -0.019381	   -0.008609	   -0.006828	   -0.015437	   -0.016274	   -0.012931	   -0.029205	   -0.030054	    0.060994	    0.030941	   -0.116272	    0.081210	   -0.035061	   -0.088817	    0.068329	   -0.020488	   -0.100168	    0.096772	   -0.003396	   -0.040156	    0.038105	   -0.002051	   -0.010228	   -0.018696	   -0.028924
     8.625	0	0	    0	   -0.047949	   -0.007028	   -0.054977	   -0.050515	    0.072285	    0.021770	   -0.018772	    0.040129	    0.021357	    0.003655	   -0.013250	   -0.009596	    0.028146	    0.067255	    0.095401	    0.061986	    0.079464	    0.141450	   -0.018792	   -0.012647	   -0.031439	   -0.021094	   -0.000118	   -0.021212	   -0.029331	    0.020214	   -0.009117	   -0.071752	    0.105924	    0.034172	   -0.009786	    0.058154	    0.048367	    0.007741	    0.056942	    0.064683	   -0.038032	    0.084875	    0.046843	   -0.024847	    0.004294	   -0.020553	   -0.006831	   -0.008268	   -0.015100	   -0.016895	   -0.012983	   -0.029879	   -0.031586	    0.062780	    0.031194	   -0.116671	    0.080553	   -0.036118	   -0.088156	    0.065503	   -0.022653	   -0.100757	    0.095488	   -0.005269	   -0.042140	    0.038124	   -0.004017	   -0.008649	   -0.021528	   -0.030177
     8.700	0	0	    0	   -0.047684	   -0.008365	   -0.056049	   -0.049287	    0.072459	    0.023172	   -0.016556	    0.037897	    0.021341	    0.005940	   -0.013820	   -0.007880	    0.026324	    0.069742	    0.096066	    0.062705	    0.086306	    0.149011	   -0.019031	   -0.014023	   -0.033053	   -0.020853	   -0.000591	   -0.021444	   -0.029945	    0.020739	   -0.009206	   -0.069706	    0.106191	    0.036485	   -0.009440	    0.058503	    0.049063	    0.006584	    0.058558	    0.065143	   -0.034976	    0.088077	    0.053101	   -0.024880	    0.000468	   -0.024412	   -0.008185	   -0.006282	   -0.014467	   -0.016956	   -0.013087	   -0.030043	   -0.030722	    0.062898	    0.032176	   -0.114557	    0.080092	   -0.034466	   -0.085807	    0.065699	   -0.020107	   -0.099038	    0.096548	   -0.002490	   -0.043023	    0.038431	   -0.004591	   -0.010298	   -0.019947	   -0.030245
     8.775	0	0	    0	   -0.050670	   -0.006788	   -0.057458	   -0.050261	    0.072023	    0.021762	   -0.016248	    0.038328	    0.022080	    0.003892	   -0.011826	   -0.007933	    0.025106	    0.069540	    0.094646	    0.055735	    0.084818	    0.140553	   -0.018792	   -0.014049	   -0.032841	   -0.023067	   -0.000645	   -0.023712	   -0.030011	    0.020056	   -0.009955	   -0.072220	    0.105674	    0.033454	   -0.009894	    0.058212	    0.048317	    0.004564	    0.057946	    0.062509	   -0.038492	    0.086525	    0.048033	   -0.025878	    0.001324	   -0.024554	   -0.009622	   -0.005392	   -0.015014	   -0.017414	   -0.012813	   -0.030226	   -0.030922	    0.061572	    0.030650	   -0.118750	    0.081310	   -0.037441	   -0.088468	    0.067563	   -0.020906	   -0.100315	    0.097434	   -0.002881	   -0.044150	    0.036882	   -0.007268	   -0.011781	   -0.017736	   -0.029517
     8.850	0	0	    0	   -0.051680	   -0.008172	   -0.059852	   -0.053100	    0.071662	    0.018562	   -0.015731	    0.037803	    0.022072	    0.004406	   -0.012740	   -0.008334	    0.025530	    0.071001	    0.096531	    0.058894	    0.080201	    0.139095	   -0.016747	   -0.015558	   -0.032304	   -0.024051	   -0.001460	   -0.025510	   -0.032513	    0.020294	   -0.012219	   -0.075388	    0.104151	    0.028763	   -0.010670	    0.058479	    0.047809	    0.003423	    0.058844	    0.062267	   -0.042028	    0.085601	    0.043574	   -0.028427	   -0.000534	   -0.028960	   -0.007934	   -0.008126	   -0.016060	   -0.018245	   -0.013028	   -0.031272	   -0.035324	    0.062270	    0.026946	   -0.122846	    0.079167	   -0.043680	   -0.094268	    0.066160	   -0.028108	   -0.104908	    0.096934	   -0.007975	   -0.048708	    0.036131	   -0.012577	   -0.009114	   -0.021922	   -0.031036
     8.925	0	0	    0	   -0.054638	   -0.008265	   -0.062902	   -0.057355	    0.071146	    0.013790	   -0.017332	    0.038143	    0.020811	    0.003729	   -0.012823	   -0.009094	    0.026434	    0.071771	    0.098205	    0.058437	    0.079680	    0.138117	   -0.021179	   -0.015492	   -0.036671	   -0.025261	   -0.001449	   -0.026710	   -0.033506	    0.019287	   -0.014219	   -0.079117	    0.102719	    0.023602	   -0.013033	    0.058544	    0.045511	    0.001733	    0.058431	    0.060164	   -0.046884	    0.086081	    0.039196	   -0.029372	   -0.002217	   -0.031588	   -0.010437	   -0.006393	   -0.016830	   -0.019198	   -0.013189	   -0.032387	   -0.038658	    0.061398	    0.022740	   -0.128568	    0.078293	   -0.050275	   -0.100410	    0.065238	   -0.035173	   -0.110196	    0.095883	   -0.014313	   -0.052514	    0.034992	   -0.017522	   -0.012260	   -0.018744	   -0.031004
     9.000	0	0	    0	   -0.056810	   -0.009053	   -0.065863	   -0.060522	    0.070230	    0.009708	   -0.018980	    0.038448	    0.019468	    0.001336	   -0.012273	   -0.010937	    0.028163	    0.075331	    0.103495	    0.059812	    0.082106	    0.141919	   -0.021624	   -0.017221	   -0.038846	   -0.026292	   -0.002141	   -0.028433	   -0.036032	    0.018973	   -0.017059	   -0.082849	    0.101918	    0.019069	   -0.014605	    0.058303	    0.043698	    0.000183	    0.059793	    0.059976	   -0.049942	    0.085931	    0.035989	   -0.032241	   -0.003741	   -0.035983	   -0.010213	   -0.007301	   -0.017514	   -0.020513	   -0.013225	   -0.033738	   -0.041744	    0.058812	    0.017067	   -0.134669	    0.077142	   -0.057527	   -0.106928	    0.064237	   -0.042691	   -0.118447	    0.096314	   -0.022133	   -0.058057	    0.034792	   -0.023265	   -0.013208	   -0.020879	   -0.034087
     9.075	0	0	    0	   -0.059402	   -0.008259	   -0.067661	   -0.064449	    0.069763	    0.005314	   -0.018782	    0.036068	    0.017286	    0.001606	   -0.013377	   -0.011772	    0.026524	    0.076764	    0.103288	    0.058141	    0.087644	    0.145785	   -0.028087	   -0.013595	   -0.041682	   -0.028757	   -0.001407	   -0.030164	   -0.038310	    0.018435	   -0.019875	   -0.086678	    0.102329	    0.015651	   -0.017196	    0.058109	    0.040913	   -0.002734	    0.059707	    0.056973	   -0.052325	    0.085725	    0.033400	   -0.038118	    0.000276	   -0.037843	   -0.014883	   -0.003677	   -0.018560	   -0.021731	   -0.013302	   -0.035033	   -0.046526	    0.061003	    0.014476	   -0.140634	    0.076269	   -0.064365	   -0.113586	    0.062787	   -0.050799	   -0.124324	    0.094020	   -0.030304	   -0.061514	    0.033353	   -0.028161	   -0.016035	   -0.018549	   -0.034584
     9.150	0	0	    0	   -0.055527	   -0.010090	   -0.065618	   -0.067744	    0.068825	    0.001082	   -0.021697	    0.037303	    0.015606	    0.000258	   -0.013030	   -0.012772	    0.027681	    0.075661	    0.103342	    0.058361	    0.083695	    0.142056	   -0.026969	   -0.013655	   -0.040624	   -0.026225	   -0.002014	   -0.028239	   -0.042302	    0.019206	   -0.023097	   -0.089563	    0.099222	    0.009659	   -0.019553	    0.057451	    0.037898	   -0.001363	    0.057548	    0.056184	   -0.059449	    0.086105	    0.026656	   -0.039884	   -0.000610	   -0.040493	   -0.014653	   -0.004588	   -0.019242	   -0.022691	   -0.013957	   -0.036648	   -0.050851	    0.059943	    0.009092	   -0.143287	    0.073867	   -0.069420	   -0.118736	    0.061980	   -0.056755	   -0.133423	    0.095795	   -0.037628	   -0.067376	    0.033073	   -0.034302	   -0.013579	   -0.020731	   -0.034309
     9.225	0	0	    0	   -0.050919	   -0.009533	   -0.060452	   -0.050947	    0.067131	    0.016184	   -0.016846	    0.035887	    0.019042	    0.003321	   -0.014439	   -0.011117	    0.031168	    0.076712	    0.107881	    0.064195	    0.083940	    0.148135	   -0.013161	   -0.019993	   -0.033155	   -0.021347	   -0.002387	   -0.023734	   -0.034328	    0.018940	   -0.015388	   -0.070728	    0.098642	    0.027914	   -0.010958	    0.056308	    0.045350	    0.009571	    0.059185	    0.068756	   -0.042173	    0.081899	    0.039725	   -0.025521	   -0.002150	   -0.027672	   -0.008919	   -0.005983	   -0.014903	   -0.019093	   -0.014277	   -0.033369	   -0.036696	    0.056672	    0.019976	   -0.119720	    0.073589	   -0.046131	   -0.092956	    0.059357	   -0.033600	   -0.113393	    0.088193	   -0.025200	   -0.051095	    0.030290	   -0.020805	   -0.010711	   -0.019701	   -0.030412
     9.300	0	0	    0	   -0.050212	   -0.008496	   -0.058708	   -0.044384	    0.071808	    0.027424	   -0.014467	    0.039449	    0.024982	    0.006209	   -0.014154	   -0.007946	    0.036362	    0.076169	    0.112532	    0.065179	    0.088134	    0.153313	   -0.019029	   -0.008967	   -0.027995	   -0.020100	   -0.002910	   -0.023009	   -0.028313	    0.020227	   -0.008086	   -0.063398	    0.105737	    0.042339	   -0.006341	    0.058498	    0.052157	    0.015361	    0.059871	    0.075232	   -0.030771	    0.090211	    0.059440	   -0.021936	    0.000258	   -0.021679	   -0.010023	   -0.003992	   -0.014015	   -0.016876	   -0.013274	   -0.030150	   -0.027736	    0.062574	    0.034838	   -0.110753	    0.079475	   -0.031278	   -0.081688	    0.066433	   -0.015255	   -0.093310	    0.095496	    0.002186	   -0.041617	    0.035435	   -0.006183	   -0.008512	   -0.019772	   -0.028283
     9.375	0	0	    0	   -0.051207	   -0.009105	   -0.060311	   -0.043310	    0.073052	    0.029742	   -0.011429	    0.038861	    0.027432	    0.005840	   -0.013351	   -0.007511	    0.036456	    0.079486	    0.115942	    0.069175	    0.091902	    0.161078	   -0.017286	   -0.016576	   -0.033862	   -0.022172	   -0.001387	   -0.023558	   -0.027254	    0.020035	   -0.007219	   -0.059671	    0.106982	    0.047310	   -0.003154	    0.058880	    0.055726	    0.015503	    0.061942	    0.077445	   -0.025691	    0.092710	    0.067019	   -0.021150	   -0.000691	   -0.021841	   -0.008720	   -0.006373	   -0.015094	   -0.017242	   -0.012390	   -0.029632	   -0.025083	    0.062508	    0.037425	   -0.107798	    0.078881	   -0.028917	   -0.079701	    0.066581	   -0.013121	   -0.087480	    0.095601	    0.008121	   -0.039091	    0.036504	   -0.002587	   -0.009250	   -0.018730	   -0.027980
     9.450	0	0	    0	   -0.051053	   -0.009630	   -0.060683	   -0.043430	    0.073013	    0.029583	   -0.010603	    0.038359	    0.027755	    0.004958	   -0.013268	   -0.008310	    0.039047	    0.081857	    0.120903	    0.070879	    0.092554	    0.163433	   -0.023624	   -0.007290	   -0.030915	   -0.021980	   -0.001457	   -0.023437	   -0.027537	    0.019863	   -0.007673	   -0.059535	    0.107033	    0.047498	   -0.002377	    0.059367	    0.056991	    0.017382	    0.063012	    0.080393	   -0.025986	    0.093300	    0.067314	   -0.024579	    0.001143	   -0.023436	   -0.009205	   -0.005660	   -0.014865	   -0.017042	   -0.013069	   -0.030111	   -0.026770	    0.062993	    0.036223	   -0.109726	    0.078156	   -0.031570	   -0.082055	    0.066642	   -0.015413	   -0.091269	    0.098620	    0.007350	   -0.041279	    0.037615	   -0.003663	   -0.010474	   -0.019133	   -0.029607
     9.525	0	0	    0	   -0.049461	   -0.010584	   -0.060045	   -0.041212	    0.072356	    0.031144	   -0.007929	    0.037132	    0.029203	    0.007147	   -0.015432	   -0.008285	    0.039972	    0.080630	    0.120602	    0.073165	    0.094690	    0.167855	   -0.023799	   -0.010507	   -0.034306	   -0.021793	   -0.001604	   -0.023397	   -0.025699	    0.018947	   -0.006752	   -0.055779	    0.107399	    0.051620	   -0.001352	    0.059410	    0.058058	    0.019297	    0.061432	    0.080729	   -0.023307	    0.093710	    0.070403	   -0.023932	    0.001360	   -0.022572	   -0.008012	   -0.007381	   -0.015393	   -0.016997	   -0.013211	   -0.030208	   -0.024829	    0.062510	    0.037681	   -0.107204	    0.077379	   -0.029825	   -0.078769	    0.065669	   -0.013100	   -0.087422	    0.096166	    0.008744	   -0.039569	    0.036125	   -0.003444	   -0.009991	   -0.018125	   -0.028116
     9.600	0	0	    0	   -0.051557	   -0.011170	   -0.062726	   -0.042716	    0.072356	    0.029640	   -0.008228	    0.037425	    0.029197	    0.007986	   -0.017694	   -0.009708	    0.041943	    0.083572	    0.125514	    0.073289	    0.094615	    0.167904	   -0.018213	   -0.017434	   -0.035648	   -0.022960	   -0.001789	   -0.024748	   -0.026970	    0.019423	   -0.007547	   -0.056581	    0.106905	    0.050324	   -0.000783	    0.059677	    0.058894	    0.018897	    0.062731	    0.081628	   -0.024075	    0.094272	    0.070198	   -0.028244	    0.004009	   -0.024236	   -0.009397	   -0.006303	   -0.015700	   -0.017568	   -0.013107	   -0.030675	   -0.024491	    0.061030	    0.036538	   -0.111423	    0.077653	   -0.033770	   -0.083286	    0.066205	   -0.017080	   -0.089144	    0.097399	    0.008255	   -0.041043	    0.036575	   -0.004468	   -0.007595	   -0.020754	   -0.028350
     9.675	0	0	    0	   -0.053192	   -0.011276	   -0.064468	   -0.044927	    0.071259	    0.026332	   -0.009236	    0.037087	    0.027852	    0.008268	   -0.019420	   -0.011152	    0.043560	    0.085683	    0.129243	    0.077959	    0.094051	    0.172009	   -0.022499	   -0.013504	   -0.036003	   -0.023657	   -0.001344	   -0.025001	   -0.028811	    0.018970	   -0.009841	   -0.059337	    0.105973	    0.046636	   -0.001872	    0.059049	    0.057177	    0.017841	    0.063328	    0.081170	   -0.026747	    0.095043	    0.068297	   -0.026515	   -0.000973	   -0.027487	   -0.007505	   -0.008612	   -0.016116	   -0.018839	   -0.012918	   -0.031758	   -0.028667	    0.060099	    0.031432	   -0.115908	    0.075230	   -0.040678	   -0.088555	    0.064443	   -0.024112	   -0.093503	    0.096438	    0.002935	   -0.044651	    0.035368	   -0.009283	   -0.007110	   -0.022226	   -0.029336
     9.750	0	0	    0	   -0.056336	   -0.010900	   -0.067236	   -0.048753	    0.070630	    0.021877	   -0.010477	    0.037371	    0.026894	    0.006034	   -0.018214	   -0.012179	    0.046124	    0.087357	    0.133481	    0.078511	    0.095646	    0.174157	   -0.025863	   -0.015997	   -0.041860	   -0.025521	   -0.000947	   -0.026468	   -0.031546	    0.019133	   -0.012413	   -0.063447	    0.106075	    0.042628	   -0.003280	    0.058387	    0.055107	    0.016774	    0.064045	    0.080819	   -0.029805	    0.094420	    0.064615	   -0.031455	    0.000811	   -0.030644	   -0.010714	   -0.007100	   -0.017815	   -0.020218	   -0.012743	   -0.032961	   -0.033429	    0.060871	    0.027442	   -0.122055	    0.074386	   -0.047670	   -0.095286	    0.063580	   -0.031705	   -0.101052	    0.096971	   -0.004081	   -0.049297	    0.035334	   -0.013963	   -0.012357	   -0.020029	   -0.032386
     9.825	0	0	    0	   -0.056851	   -0.012009	   -0.068861	   -0.051668	    0.069281	    0.017613	   -0.010078	    0.034250	    0.024172	    0.006933	   -0.020285	   -0.013351	    0.047699	    0.087046	    0.134744	    0.078303	    0.098270	    0.176572	   -0.021849	   -0.020331	   -0.042180	   -0.026020	   -0.001056	   -0.027075	   -0.033846	    0.019095	   -0.014751	   -0.066894	    0.104527	    0.037633	   -0.006246	    0.057890	    0.051644	    0.016044	    0.062870	    0.078914	   -0.034093	    0.095984	    0.061891	   -0.031398	   -0.003766	   -0.035164	   -0.009726	   -0.008424	   -0.018150	   -0.021038	   -0.013230	   -0.034268	   -0.037456	    0.059862	    0.022406	   -0.126847	    0.072815	   -0.054032	   -0.099131	    0.060061	   -0.039069	   -0.108039	    0.095935	   -0.012104	   -0.055097	    0.034906	   -0.020191	   -0.011812	   -0.020987	   -0.032799
     9.900	0	0	    0	   -0.056159	   -0.013402	   -0.069561	   -0.056481	    0.069873	    0.013392	   -0.013123	    0.035991	    0.022868	    0.007698	   -0.021426	   -0.013728	    0.041997	    0.087984	    0.129981	    0.077515	    0.100666	    0.178182	   -0.027255	   -0.016975	   -0.044230	   -0.027209	   -0.001110	   -0.028320	   -0.035286	    0.017875	   -0.017412	   -0.070946	    0.104265	    0.033319	   -0.010370	    0.058188	    0.047818	    0.010241	    0.062640	    0.072881	   -0.036294	    0.094755	    0.058461	   -0.034580	   -0.002059	   -0.036639	   -0.012610	   -0.007150	   -0.019760	   -0.021933	   -0.013491	   -0.035424	   -0.039909	    0.057516	    0.017607	   -0.131574	    0.070754	   -0.060820	   -0.105057	    0.059136	   -0.045921	   -0.112760	    0.092375	   -0.020385	   -0.059984	    0.034920	   -0.025064	   -0.013937	   -0.019850	   -0.033787
