 [File Information]      		 [Data Line]	36
Measured Date	2024/05/21 103339
ID		Version	11.0
Name	tristan_6	[HeaderType]	11.0/11.0
Comment	
[Measurement Info.]
Holder Location	       0
Block Design	Off     
Pre.Rest Time	       0
Task Time	       0
Pos.Rest Time	       0
Loop	       0
Averaging	       1
Total Points	     816
[.INF File]
Filename	Cognitive1.INF
[Condition-1]
HV Switching	OFF
 R1 ,R2 ,R3 ,R4 ,R5 ,R6 ,R7 ,R8 
 120.00, 70.00,120.00,100.00, 90.00, 70.00,120.00,120.00
 Gain(X1,X4,X16,X64)
 R1 ,R2 ,R3 ,R4 ,R5 ,R6 ,R7 ,R8 
 1,1,1,1,1,1,1,1
[Analysis Condition]
Smoothed Type	None            
Smoothed Points	       0
Smoothed Loop	       0
Baseline Method	None            
Baseline location	
[Text Info.]
Output Mode	Continious      	Task No.		Data Type	Hb      
Time Range	    0.00	   61.13	Averaing	1
(1,3)(5,3)(5,7)(2,7)(2,4)(6,4)(6,8)(1,1)(3,3)(5,5)(7,7)(2,2)(4,4)(6,6)(8,8)(3,1)(3,5)(7,5)(7,2)(4,2)(4,6)(8,6)
         	     	     	     	    ch- 1	    ch- 1	    ch- 1	    ch- 2	    ch- 2	    ch- 2	    ch- 3	    ch- 3	    ch- 3	    ch- 4	    ch- 4	    ch- 4	    ch- 5	    ch- 5	    ch- 5	    ch- 6	    ch- 6	    ch- 6	    ch- 7	    ch- 7	    ch- 7	    ch- 8	    ch- 8	    ch- 8	    ch- 9	    ch- 9	    ch- 9	    ch-10	    ch-10	    ch-10	    ch-11	    ch-11	    ch-11	    ch-12	    ch-12	    ch-12	    ch-13	    ch-13	    ch-13	    ch-14	    ch-14	    ch-14	    ch-15	    ch-15	    ch-15	    ch-16	    ch-16	    ch-16	    ch-17	    ch-17	    ch-17	    ch-18	    ch-18	    ch-18	    ch-19	    ch-19	    ch-19	    ch-20	    ch-20	    ch-20	    ch-21	    ch-21	    ch-21	    ch-22	    ch-22	    ch-22
Time(sec)	Task	Mark	Count	    oxyHb   	  deoxyHb	  totalHb	    oxyHb   	  deoxyHb	  totalHb	    oxyHb   	  deoxyHb	  totalHb	    oxyHb   	  deoxyHb	  totalHb	    oxyHb   	  deoxyHb	  totalHb	    oxyHb   	  deoxyHb	  totalHb	    oxyHb   	  deoxyHb	  totalHb	    oxyHb   	  deoxyHb	  totalHb	    oxyHb   	  deoxyHb	  totalHb	    oxyHb   	  deoxyHb	  totalHb	    oxyHb   	  deoxyHb	  totalHb	    oxyHb   	  deoxyHb	  totalHb	    oxyHb   	  deoxyHb	  totalHb	    oxyHb   	  deoxyHb	  totalHb	    oxyHb   	  deoxyHb	  totalHb	    oxyHb   	  deoxyHb	  totalHb	    oxyHb   	  deoxyHb	  totalHb	    oxyHb   	  deoxyHb	  totalHb	    oxyHb   	  deoxyHb	  totalHb	    oxyHb   	  deoxyHb	  totalHb	    oxyHb   	  deoxyHb	  totalHb	    oxyHb   	  deoxyHb	  totalHb
     0.000	0	0Z	    0	    0.000000	    0.000000	    0.000000	    0.000000	    0.000000	    0.000000	    0.000000	    0.000000	    0.000000	    0.000000	    0.000000	    0.000000	    0.000000	    0.000000	    0.000000	    0.000000	    0.000000	    0.000000	    0.000000	    0.000000	    0.000000	    0.000000	    0.000000	    0.000000	    0.000000	    0.000000	    0.000000	    0.000000	    0.000000	    0.000000	    0.000000	    0.000000	    0.000000	    0.000000	    0.000000	    0.000000	    0.000000	    0.000000	    0.000000	    0.000000	    0.000000	    0.000000	    0.000000	    0.000000	    0.000000	    0.000000	    0.000000	    0.000000	    0.000000	    0.000000	    0.000000	    0.000000	    0.000000	    0.000000	    0.000000	    0.000000	    0.000000	    0.000000	    0.000000	    0.000000	    0.000000	    0.000000	    0.000000	    0.000000	    0.000000	    0.000000
     0.075	0	0	    0	   -0.003373	   -0.003717	   -0.007090	    0.001296	    0.002872	    0.004168	    0.000028	   -0.001957	   -0.001929	   -0.000365	   -0.009121	   -0.009486	    0.012814	   -0.001513	    0.011302	    0.013946	    0.002880	    0.016826	   -0.003051	   -0.002048	   -0.005098	    0.000281	   -0.002354	   -0.002073	   -0.000207	    0.004457	    0.004251	    0.007285	    0.012123	    0.019408	    0.002579	    0.002375	    0.004954	    0.011828	   -0.000161	    0.011668	    0.005753	    0.005786	    0.011539	   -0.003957	    0.000562	   -0.003395	   -0.000384	   -0.000272	   -0.000656	    0.001203	   -0.000065	    0.001139	   -0.002484	    0.005491	    0.003008	   -0.002172	   -0.003330	   -0.005501	   -0.004704	   -0.006716	   -0.011419	   -0.000353	    0.001812	    0.001460	   -0.000321	    0.002237	    0.001917	    0.000869	    0.002536	    0.003405
     0.150	0	0	    0	   -0.006105	   -0.005588	   -0.011694	    0.000897	    0.002978	    0.003875	   -0.003172	   -0.002869	   -0.006041	   -0.003296	   -0.016780	   -0.020076	    0.021890	   -0.003581	    0.018309	    0.031378	    0.000053	    0.031431	   -0.009074	   -0.004734	   -0.013808	    0.000902	   -0.004066	   -0.003165	   -0.003372	    0.005890	    0.002518	    0.021348	    0.013205	    0.034553	    0.007717	    0.004360	    0.012077	    0.016227	   -0.000147	    0.016080	    0.006970	    0.008601	    0.015571	   -0.005883	   -0.004738	   -0.010621	   -0.003981	    0.002478	   -0.001503	   -0.000028	    0.000642	    0.000614	   -0.003442	    0.005454	    0.002012	   -0.028081	   -0.002412	   -0.030493	   -0.042514	   -0.004838	   -0.047353	   -0.007788	    0.004618	   -0.003170	   -0.003877	    0.004342	    0.000465	    0.000149	    0.001857	    0.002006
     0.225	0	0	    0	   -0.023684	   -0.010457	   -0.034141	    0.002798	    0.001365	    0.004164	   -0.015592	   -0.019119	   -0.034711	   -0.033136	   -0.035632	   -0.068768	    0.051833	   -0.017433	    0.034400	    0.082386	   -0.014714	    0.067671	   -0.022249	   -0.016302	   -0.038551	    0.008852	   -0.000601	    0.008251	   -0.007926	    0.010559	    0.002633	    0.046962	    0.041244	    0.088206	    0.014749	    0.009029	    0.023778	    0.056112	   -0.001827	    0.054285	    0.022637	    0.018771	    0.041407	    0.003236	    0.003110	    0.006346	   -0.001091	   -0.000414	   -0.001504	   -0.000656	   -0.001027	   -0.001684	   -0.013814	    0.009058	   -0.004756	   -0.059119	   -0.022563	   -0.081682	   -0.116409	   -0.050616	   -0.167024	   -0.027674	   -0.004574	   -0.032248	    0.012278	    0.006127	    0.018406	   -0.002050	    0.002271	    0.000221
     0.300	0	0	    0	   -0.035790	   -0.029492	   -0.065282	    0.006021	    0.003831	    0.009852	   -0.019489	   -0.034301	   -0.053790	   -0.053623	   -0.106838	   -0.160462	    0.069046	   -0.037090	    0.031955	    0.088960	   -0.008340	    0.080620	   -0.041381	   -0.015818	   -0.057199	    0.013801	    0.009227	    0.023028	   -0.017116	    0.017108	   -0.000008	    0.041988	    0.055351	    0.097339	    0.014705	    0.010608	    0.025313	    0.067448	    0.011959	    0.079407	    0.038881	    0.048281	    0.087162	   -0.012167	    0.016229	    0.004062	   -0.001634	   -0.000394	   -0.002028	   -0.001855	   -0.002266	   -0.004120	   -0.020556	    0.010791	   -0.009766	   -0.071321	   -0.035533	   -0.106854	   -0.135437	   -0.087331	   -0.222768	   -0.037964	   -0.009599	   -0.047563	    0.014105	    0.028535	    0.042640	   -0.001622	   -0.000827	   -0.002449
     0.375	0	0	    0	   -0.037622	   -0.038761	   -0.076383	    0.005354	    0.005416	    0.010770	   -0.020421	   -0.041169	   -0.061590	   -0.053102	   -0.139053	   -0.192155	    0.068836	   -0.041842	    0.026994	    0.085832	   -0.004250	    0.081582	   -0.027807	   -0.029665	   -0.057472	    0.011599	    0.011265	    0.022865	   -0.026438	    0.015436	   -0.011002	    0.004183	    0.057140	    0.061323	   -0.014748	    0.002806	   -0.011942	    0.062376	    0.007713	    0.070090	    0.015732	    0.060284	    0.076016	   -0.015871	    0.007004	   -0.008867	   -0.005053	   -0.003585	   -0.008638	   -0.000545	   -0.003653	   -0.004198	   -0.030901	    0.014279	   -0.016622	   -0.036940	   -0.035066	   -0.072005	   -0.073325	   -0.086596	   -0.159921	   -0.035202	   -0.013930	   -0.049132	    0.001365	    0.032386	    0.033752	   -0.003810	   -0.000590	   -0.004401
     0.450	0	0	    0	   -0.009664	   -0.035257	   -0.044921	   -0.032835	    0.017476	   -0.015360	   -0.037639	   -0.019136	   -0.056775	   -0.023692	   -0.130421	   -0.154113	    0.037043	   -0.029402	    0.007641	    0.007546	    0.041172	    0.048718	    0.003918	   -0.006132	   -0.002214	    0.002164	    0.006678	    0.008841	   -0.017372	   -0.002738	   -0.020110	   -0.105397	   -0.003012	   -0.108409	   -0.063385	   -0.028624	   -0.092009	   -0.006988	    0.000608	   -0.006380	    0.000990	    0.014558	    0.015549	   -0.010377	    0.003633	   -0.006744	   -0.007109	   -0.003607	   -0.010717	    0.002976	    0.000995	    0.003971	   -0.042312	   -0.014640	   -0.056952	    0.008505	    0.000729	    0.009233	    0.029334	   -0.008707	    0.020627	   -0.001716	   -0.004840	   -0.006556	   -0.015098	    0.010375	   -0.004724	   -0.002943	    0.001225	   -0.001718
     0.525	0	0	    0	    0.029293	    0.015797	    0.045090	   -0.071357	    0.018068	   -0.053289	   -0.057423	    0.043662	   -0.013762	    0.006053	   -0.014267	   -0.008214	   -0.145115	    0.028169	   -0.116946	   -0.260661	   -0.034529	   -0.295189	    0.019751	    0.026576	    0.046327	   -0.002788	    0.000067	   -0.002721	   -0.006888	   -0.000724	   -0.007613	   -0.134877	   -0.059560	   -0.194437	   -0.049996	   -0.008148	   -0.058144	   -0.055992	   -0.016434	   -0.072426	   -0.119082	   -0.012073	   -0.131155	   -0.015815	    0.005073	   -0.010741	   -0.005002	   -0.001573	   -0.006575	    0.003105	    0.004818	    0.007923	   -0.042774	   -0.032237	   -0.075010	    0.020389	    0.026719	    0.047108	    0.054449	    0.056324	    0.110773	    0.013225	    0.013869	    0.027094	   -0.016326	   -0.010218	   -0.026543	    0.000340	    0.001212	    0.001552
     0.600	0	0	    0	    0.034566	    0.050179	    0.084746	   -0.077589	    0.010974	   -0.066615	   -0.077372	    0.080905	    0.003533	   -0.002886	    0.097425	    0.094538	   -0.208905	   -0.050319	   -0.259224	   -0.315953	   -0.137930	   -0.453883	    0.027038	    0.036330	    0.063368	   -0.003057	   -0.001486	   -0.004543	   -0.000755	    0.002922	    0.002167	   -0.137719	   -0.071787	   -0.209506	   -0.060872	    0.014789	   -0.046083	   -0.104327	   -0.007276	   -0.111603	   -0.168980	   -0.052794	   -0.221774	   -0.008767	    0.003333	   -0.005434	    0.001159	   -0.001594	   -0.000435	    0.006485	    0.006651	    0.013136	   -0.036495	   -0.037502	   -0.073997	    0.031631	    0.029590	    0.061221	    0.060843	    0.065360	    0.126203	    0.014007	    0.018734	    0.032741	   -0.011388	   -0.009947	   -0.021335	    0.006435	    0.002211	    0.008646
     0.675	0	0	    0	    0.038821	    0.067077	    0.105897	   -0.077555	    0.012778	   -0.064777	   -0.078654	    0.088640	    0.009986	   -0.004758	    0.121855	    0.117096	   -0.215617	   -0.092694	   -0.308311	   -0.319917	   -0.165486	   -0.485403	    0.032108	    0.034604	    0.066713	    0.000344	   -0.000233	    0.000111	    0.006148	    0.007335	    0.013483	   -0.131790	   -0.067641	   -0.199431	   -0.054930	    0.016798	   -0.038132	   -0.111743	   -0.022227	   -0.133970	   -0.160551	   -0.075517	   -0.236068	   -0.001368	   -0.000628	   -0.001996	    0.004942	   -0.001929	    0.003013	    0.009314	    0.009548	    0.018861	   -0.025803	   -0.034701	   -0.060503	    0.033375	    0.037974	    0.071350	    0.061959	    0.070604	    0.132563	    0.025893	    0.022267	    0.048160	   -0.000338	   -0.005683	   -0.006021	    0.009457	    0.000625	    0.010082
     0.750	0	0	    0	    0.037743	    0.060453	    0.098196	   -0.073412	    0.011919	   -0.061492	   -0.075281	    0.088087	    0.012806	   -0.007100	    0.124018	    0.116918	   -0.216467	   -0.095059	   -0.311526	   -0.316501	   -0.160093	   -0.476593	    0.030172	    0.036980	    0.067152	    0.001239	    0.000041	    0.001281	    0.003757	    0.007694	    0.011451	   -0.126849	   -0.062434	   -0.189283	   -0.055541	    0.019046	   -0.036495	   -0.113434	   -0.025146	   -0.138580	   -0.160463	   -0.073083	   -0.233546	   -0.002894	    0.006932	    0.004039	    0.005441	   -0.002538	    0.002904	    0.008370	    0.009964	    0.018334	   -0.025163	   -0.030589	   -0.055752	    0.033189	    0.035449	    0.068639	    0.060026	    0.066524	    0.126550	    0.019534	    0.024478	    0.044012	    0.000793	   -0.000869	   -0.000076	    0.011160	    0.000143	    0.011303
     0.825	0	0	    0	    0.033974	    0.058370	    0.092344	   -0.069693	    0.011966	   -0.057727	   -0.067611	    0.083260	    0.015649	   -0.001841	    0.119769	    0.117928	   -0.205152	   -0.098452	   -0.303604	   -0.295006	   -0.147977	   -0.442983	    0.025928	    0.038079	    0.064007	    0.000230	    0.000388	    0.000618	    0.003497	    0.006424	    0.009921	   -0.119606	   -0.056943	   -0.176549	   -0.051088	    0.019422	   -0.031666	   -0.105064	   -0.025694	   -0.130759	   -0.150270	   -0.068983	   -0.219254	   -0.001652	    0.005646	    0.003994	    0.003547	   -0.000343	    0.003204	    0.007400	    0.009462	    0.016862	   -0.022923	   -0.026734	   -0.049657	    0.025802	    0.033867	    0.059670	    0.051763	    0.061777	    0.113540	    0.014349	    0.019571	    0.033920	   -0.000997	   -0.001036	   -0.002033	    0.006823	    0.001217	    0.008040
     0.900	0	0	    0	    0.030634	    0.052461	    0.083095	   -0.066397	    0.011695	   -0.054702	   -0.064652	    0.083195	    0.018543	   -0.003839	    0.120350	    0.116511	   -0.209426	   -0.088693	   -0.298119	   -0.284117	   -0.146315	   -0.430433	    0.028435	    0.034236	    0.062671	   -0.000915	   -0.000410	   -0.001325	    0.001827	    0.006465	    0.008292	   -0.115307	   -0.052361	   -0.167668	   -0.049881	    0.019529	   -0.030352	   -0.109504	   -0.019802	   -0.129307	   -0.148566	   -0.065835	   -0.214401	    0.005057	    0.000608	    0.005664	    0.005241	   -0.002781	    0.002460	    0.005615	    0.008541	    0.014156	   -0.021415	   -0.021079	   -0.042494	    0.023778	    0.032715	    0.056493	    0.049322	    0.058174	    0.107496	    0.009122	    0.019461	    0.028583	   -0.001587	   -0.000266	   -0.001853	    0.004765	    0.001771	    0.006537
     0.975	0	0	    0	    0.031026	    0.048697	    0.079723	   -0.067827	    0.014288	   -0.053539	   -0.065163	    0.085188	    0.020025	   -0.001996	    0.117463	    0.115467	   -0.205503	   -0.086988	   -0.292490	   -0.286648	   -0.133288	   -0.419936	    0.027294	    0.032931	    0.060226	    0.000376	   -0.001074	   -0.000698	    0.001705	    0.006217	    0.007923	   -0.118031	   -0.046142	   -0.164173	   -0.050896	    0.019727	   -0.031170	   -0.107264	   -0.020040	   -0.127304	   -0.145776	   -0.058277	   -0.204053	    0.000899	    0.004008	    0.004907	    0.002967	   -0.000954	    0.002013	    0.005321	    0.007191	    0.012512	   -0.018462	   -0.017497	   -0.035959	    0.021277	    0.034695	    0.055972	    0.044851	    0.059671	    0.104522	    0.008389	    0.016500	    0.024888	   -0.001586	    0.000787	   -0.000799	    0.005921	   -0.001066	    0.004855
     1.050	0	0	    0	    0.027428	    0.051062	    0.078490	   -0.068790	    0.014807	   -0.053983	   -0.064295	    0.084053	    0.019758	   -0.004579	    0.120171	    0.115593	   -0.203164	   -0.087531	   -0.290695	   -0.273094	   -0.128812	   -0.401906	    0.023855	    0.030978	    0.054832	   -0.001915	   -0.000075	   -0.001990	   -0.001109	    0.006400	    0.005291	   -0.120442	   -0.044564	   -0.165006	   -0.052205	    0.020948	   -0.031257	   -0.107261	   -0.019941	   -0.127202	   -0.141818	   -0.058988	   -0.200806	   -0.000938	    0.002611	    0.001673	    0.001787	   -0.002036	   -0.000249	    0.004250	    0.006638	    0.010888	   -0.019461	   -0.016598	   -0.036058	    0.012947	    0.034496	    0.047443	    0.035162	    0.057297	    0.092459	   -0.001575	    0.018019	    0.016444	   -0.004178	    0.001123	   -0.003054	    0.004284	   -0.003924	    0.000361
     1.125	0	0	    0	    0.028365	    0.046182	    0.074547	   -0.071128	    0.015560	   -0.055568	   -0.065699	    0.083488	    0.017789	   -0.001795	    0.114019	    0.112224	   -0.199955	   -0.082391	   -0.282346	   -0.263866	   -0.124539	   -0.388405	    0.022283	    0.026133	    0.048416	   -0.001973	   -0.002061	   -0.004034	   -0.002692	    0.006347	    0.003655	   -0.124088	   -0.044165	   -0.168253	   -0.053615	    0.020735	   -0.032880	   -0.106479	   -0.018043	   -0.124522	   -0.144216	   -0.053604	   -0.197820	   -0.004959	    0.004966	    0.000007	    0.000623	   -0.002523	   -0.001900	    0.003158	    0.005974	    0.009132	   -0.024313	   -0.014999	   -0.039313	    0.005229	    0.034027	    0.039256	    0.026302	    0.056419	    0.082721	   -0.008482	    0.014904	    0.006423	   -0.008530	    0.001722	   -0.006808	    0.001149	   -0.002873	   -0.001724
     1.200	0	0	    0	    0.026233	    0.046582	    0.072815	   -0.075040	    0.017422	   -0.057618	   -0.067836	    0.084115	    0.016280	   -0.001769	    0.114542	    0.112773	   -0.194426	   -0.080148	   -0.274575	   -0.259324	   -0.113007	   -0.372331	    0.016714	    0.029330	    0.046044	   -0.003488	   -0.000480	   -0.003968	   -0.005465	    0.006491	    0.001025	   -0.131356	   -0.040480	   -0.171836	   -0.056616	    0.020676	   -0.035940	   -0.105006	   -0.016226	   -0.121232	   -0.141816	   -0.051432	   -0.193248	   -0.009796	    0.006663	   -0.003133	   -0.001077	   -0.001140	   -0.002217	    0.001399	    0.005989	    0.007388	   -0.028810	   -0.013109	   -0.041919	   -0.000391	    0.033731	    0.033340	    0.019879	    0.054801	    0.074680	   -0.018025	    0.015131	   -0.002894	   -0.013325	    0.002845	   -0.010480	   -0.003039	   -0.002916	   -0.005955
     1.275	0	0	    0	    0.026983	    0.048064	    0.075046	   -0.078612	    0.017495	   -0.061118	   -0.069295	    0.085242	    0.015948	   -0.000833	    0.113836	    0.113003	   -0.195737	   -0.075554	   -0.271291	   -0.254710	   -0.114695	   -0.369405	    0.020345	    0.021410	    0.041754	   -0.004558	   -0.000345	   -0.004903	   -0.006597	    0.004875	   -0.001723	   -0.133802	   -0.043870	   -0.177672	   -0.059017	    0.019320	   -0.039697	   -0.108942	   -0.013697	   -0.122639	   -0.146119	   -0.048938	   -0.195057	   -0.009117	    0.003797	   -0.005321	   -0.001695	   -0.002555	   -0.004250	    0.001203	    0.005630	    0.006833	   -0.033360	   -0.016223	   -0.049583	   -0.008846	    0.036467	    0.027621	    0.012750	    0.054802	    0.067553	   -0.024042	    0.012526	   -0.011515	   -0.017659	    0.002852	   -0.014807	   -0.002087	   -0.005558	   -0.007645
     1.350	0	0	    0	    0.022738	    0.047353	    0.070091	   -0.079967	    0.018067	   -0.061900	   -0.068753	    0.084469	    0.015716	   -0.003288	    0.114165	    0.110877	   -0.185437	   -0.074810	   -0.260247	   -0.239642	   -0.099684	   -0.339326	    0.010088	    0.025898	    0.035986	   -0.003546	   -0.000533	   -0.004079	   -0.010530	    0.006460	   -0.004070	   -0.133905	   -0.038013	   -0.171918	   -0.061973	    0.020328	   -0.041645	   -0.106523	   -0.013453	   -0.119976	   -0.136425	   -0.045521	   -0.181946	   -0.011770	    0.003697	   -0.008073	   -0.000542	   -0.004225	   -0.004767	   -0.002155	    0.005751	    0.003596	   -0.032950	   -0.013363	   -0.046313	   -0.016680	    0.033092	    0.016412	    0.005292	    0.051029	    0.056322	   -0.037101	    0.014405	   -0.022696	   -0.022130	    0.004782	   -0.017348	   -0.004768	   -0.006924	   -0.011692
     1.425	0	0	    0	    0.017888	    0.043939	    0.061828	   -0.083732	    0.019079	   -0.064653	   -0.070449	    0.084686	    0.014237	   -0.005601	    0.112690	    0.107089	   -0.187512	   -0.065764	   -0.253276	   -0.239701	   -0.097474	   -0.337176	    0.010503	    0.022437	    0.032940	   -0.006674	   -0.000172	   -0.006846	   -0.014144	    0.006511	   -0.007634	   -0.140054	   -0.036191	   -0.176246	   -0.065428	    0.020569	   -0.044859	   -0.111496	   -0.011995	   -0.123492	   -0.143575	   -0.040518	   -0.184093	   -0.013696	    0.003951	   -0.009745	   -0.003546	   -0.002646	   -0.006192	   -0.004114	    0.004088	   -0.000026	   -0.040529	   -0.006745	   -0.047273	   -0.023088	    0.032672	    0.009584	   -0.003593	    0.052988	    0.049396	   -0.044733	    0.012957	   -0.031776	   -0.027531	    0.005815	   -0.021715	   -0.005481	   -0.006956	   -0.012437
     1.500	0	0	    0	    0.020171	    0.042459	    0.062631	   -0.078233	    0.017939	   -0.060293	   -0.071461	    0.086034	    0.014573	   -0.005951	    0.111247	    0.105296	   -0.189527	   -0.065785	   -0.255313	   -0.235207	   -0.098397	   -0.333604	    0.018078	    0.022937	    0.041015	   -0.005902	   -0.000315	   -0.006217	   -0.009470	    0.005797	   -0.003673	   -0.130279	   -0.037602	   -0.167882	   -0.062589	    0.019304	   -0.043285	   -0.115302	   -0.013233	   -0.128535	   -0.136142	   -0.044620	   -0.180762	   -0.004093	    0.002365	   -0.001729	   -0.001621	    0.000422	   -0.001199	   -0.001769	    0.002223	    0.000454	   -0.030842	   -0.011645	   -0.042487	   -0.012490	    0.032696	    0.020206	    0.007059	    0.048855	    0.055915	   -0.040002	    0.009436	   -0.030566	   -0.018555	    0.002613	   -0.015943	   -0.000965	   -0.008621	   -0.009586
     1.575	0	0	    0	    0.021946	    0.043748	    0.065693	   -0.073126	    0.021780	   -0.051346	   -0.067466	    0.086465	    0.018999	   -0.007188	    0.111641	    0.104453	   -0.183669	   -0.065704	   -0.249373	   -0.228937	   -0.093040	   -0.321978	    0.023736	    0.018533	    0.042269	   -0.002368	    0.000413	   -0.001956	   -0.005345	    0.008965	    0.003620	   -0.121924	   -0.029974	   -0.151898	   -0.058055	    0.021232	   -0.036823	   -0.105736	   -0.013486	   -0.119222	   -0.123829	   -0.035267	   -0.159095	   -0.002729	    0.005248	    0.002519	    0.002687	   -0.003731	   -0.001044	    0.000449	    0.003029	    0.003478	   -0.021274	   -0.003991	   -0.025265	   -0.003483	    0.039100	    0.035617	    0.018526	    0.057260	    0.075786	   -0.021902	    0.016362	   -0.005540	   -0.007464	    0.008894	    0.001429	   -0.000414	   -0.009583	   -0.009997
     1.650	0	0	    0	    0.024605	    0.042262	    0.066867	   -0.070697	    0.022967	   -0.047730	   -0.067465	    0.087849	    0.020384	   -0.004324	    0.109497	    0.105173	   -0.183373	   -0.063821	   -0.247194	   -0.221760	   -0.089332	   -0.311092	    0.021099	    0.021218	    0.042317	   -0.001727	    0.000537	   -0.001191	   -0.005502	    0.011069	    0.005567	   -0.119747	   -0.026733	   -0.146480	   -0.057058	    0.023284	   -0.033775	   -0.103278	   -0.010694	   -0.113973	   -0.118615	   -0.034138	   -0.152753	   -0.000238	    0.006591	    0.006353	    0.001877	   -0.002090	   -0.000213	    0.000405	    0.003434	    0.003839	   -0.018797	   -0.001149	   -0.019946	   -0.003928	    0.041314	    0.037386	    0.019541	    0.058845	    0.078386	   -0.019124	    0.020020	    0.000897	   -0.005468	    0.012887	    0.007419	    0.002314	   -0.009988	   -0.007674
     1.725	0	0	    0	    0.023364	    0.042732	    0.066096	   -0.071532	    0.025005	   -0.046527	   -0.067084	    0.087731	    0.020647	   -0.002727	    0.106712	    0.103985	   -0.177943	   -0.062007	   -0.239950	   -0.212107	   -0.084131	   -0.296238	    0.020414	    0.020707	    0.041121	   -0.001334	   -0.000128	   -0.001462	   -0.006018	    0.010669	    0.004651	   -0.119999	   -0.025237	   -0.145237	   -0.056634	    0.023366	   -0.033269	   -0.101295	   -0.009455	   -0.110749	   -0.116016	   -0.030507	   -0.146523	    0.000184	    0.003793	    0.003978	   -0.000169	   -0.001386	   -0.001556	   -0.000561	    0.003695	    0.003133	   -0.020583	    0.000078	   -0.020505	   -0.007556	    0.041351	    0.033796	    0.014407	    0.059286	    0.073693	   -0.023962	    0.023268	   -0.000693	   -0.007587	    0.014662	    0.007075	   -0.003146	   -0.007379	   -0.010525
     1.800	0	0	    0	    0.022886	    0.042753	    0.065639	   -0.070884	    0.025311	   -0.045572	   -0.066292	    0.086962	    0.020670	   -0.002715	    0.105125	    0.102410	   -0.175685	   -0.055154	   -0.230839	   -0.205852	   -0.082580	   -0.288432	    0.019745	    0.021201	    0.040945	   -0.001342	    0.000303	   -0.001039	   -0.006644	    0.011410	    0.004766	   -0.118904	   -0.024652	   -0.143556	   -0.055473	    0.023796	   -0.031677	   -0.100492	   -0.007134	   -0.107626	   -0.113525	   -0.028464	   -0.141989	   -0.000098	    0.003099	    0.003002	    0.000968	   -0.001617	   -0.000649	   -0.000126	    0.002859	    0.002733	   -0.020281	    0.000739	   -0.019542	   -0.007932	    0.042247	    0.034315	    0.014567	    0.059563	    0.074130	   -0.023811	    0.023311	   -0.000499	   -0.007491	    0.014564	    0.007073	   -0.001857	   -0.009814	   -0.011670
     1.875	0	0	    0	    0.022035	    0.042217	    0.064252	   -0.071797	    0.027232	   -0.044565	   -0.066333	    0.086023	    0.019690	   -0.003988	    0.105098	    0.101110	   -0.168102	   -0.052850	   -0.220952	   -0.198360	   -0.076476	   -0.274836	    0.015133	    0.021034	    0.036167	   -0.001042	    0.000428	   -0.000614	   -0.006977	    0.011281	    0.004305	   -0.120372	   -0.020403	   -0.140776	   -0.056031	    0.024693	   -0.031339	   -0.097162	   -0.005757	   -0.102919	   -0.110609	   -0.023808	   -0.134417	   -0.000028	    0.001940	    0.001912	   -0.003196	    0.000519	   -0.002677	   -0.001027	    0.003121	    0.002094	   -0.022434	    0.003460	   -0.018975	   -0.013863	    0.043634	    0.029770	    0.007991	    0.061072	    0.069063	   -0.028295	    0.025985	   -0.002311	   -0.008712	    0.016423	    0.007711	   -0.003488	   -0.008672	   -0.012160
     1.950	0	0	    0	    0.020483	    0.040215	    0.060699	   -0.073291	    0.027883	   -0.045408	   -0.065721	    0.084014	    0.018292	   -0.003265	    0.102881	    0.099616	   -0.161388	   -0.048514	   -0.209902	   -0.187455	   -0.072506	   -0.259961	    0.017682	    0.015516	    0.033199	   -0.002977	    0.000479	   -0.002498	   -0.009753	    0.012208	    0.002455	   -0.121586	   -0.019775	   -0.141362	   -0.057609	    0.025311	   -0.032297	   -0.095929	   -0.003628	   -0.099557	   -0.108286	   -0.022347	   -0.130632	   -0.000132	    0.001810	    0.001678	   -0.002841	   -0.001063	   -0.003905	   -0.001796	    0.002380	    0.000584	   -0.024327	    0.002316	   -0.022010	   -0.021421	    0.043113	    0.021692	    0.002179	    0.058080	    0.060259	   -0.034804	    0.025779	   -0.009025	   -0.011598	    0.017561	    0.005962	   -0.005308	   -0.006651	   -0.011959
     2.025	0	0	    0	    0.016486	    0.040620	    0.057106	   -0.075811	    0.028931	   -0.046881	   -0.066924	    0.083555	    0.016631	   -0.003392	    0.100624	    0.097232	   -0.155970	   -0.041466	   -0.197437	   -0.179236	   -0.068464	   -0.247701	    0.007873	    0.020495	    0.028368	   -0.004925	    0.000920	   -0.004005	   -0.011916	    0.011956	    0.000040	   -0.124652	   -0.017085	   -0.141737	   -0.059377	    0.025894	   -0.033483	   -0.095392	   -0.001598	   -0.096990	   -0.108098	   -0.018624	   -0.126722	   -0.002899	   -0.000185	   -0.003083	   -0.002216	   -0.002042	   -0.004258	   -0.002785	    0.001939	   -0.000846	   -0.028853	    0.003409	   -0.025444	   -0.027578	    0.042214	    0.014636	   -0.005157	    0.057376	    0.052219	   -0.043184	    0.026488	   -0.016696	   -0.014379	    0.017070	    0.002691	   -0.005636	   -0.008321	   -0.013957
     2.100	0	0	    0	    0.015919	    0.038560	    0.054479	   -0.077288	    0.028279	   -0.049009	   -0.067193	    0.082792	    0.015599	   -0.003611	    0.099051	    0.095440	   -0.150267	   -0.034872	   -0.185139	   -0.173341	   -0.062389	   -0.235730	    0.012773	    0.013060	    0.025833	   -0.004886	    0.000458	   -0.004429	   -0.013659	    0.011961	   -0.001698	   -0.127753	   -0.016510	   -0.144263	   -0.060720	    0.025859	   -0.034861	   -0.095848	    0.000437	   -0.095411	   -0.109069	   -0.016184	   -0.125253	   -0.006209	    0.001083	   -0.005126	   -0.006128	   -0.000808	   -0.006935	   -0.003702	    0.001915	   -0.001787	   -0.031635	    0.001073	   -0.030562	   -0.035585	    0.043082	    0.007497	   -0.012383	    0.056463	    0.044080	   -0.049660	    0.025030	   -0.024630	   -0.018923	    0.017133	   -0.001789	   -0.007942	   -0.008881	   -0.016824
     2.175	0	0	    0	    0.013239	    0.038685	    0.051924	   -0.079885	    0.028886	   -0.050999	   -0.068082	    0.081349	    0.013267	   -0.005328	    0.097481	    0.092153	   -0.147193	   -0.030150	   -0.177343	   -0.169403	   -0.060327	   -0.229730	    0.015268	    0.003881	    0.019149	   -0.005828	    0.000769	   -0.005059	   -0.015835	    0.012668	   -0.003167	   -0.131765	   -0.015587	   -0.147352	   -0.064025	    0.026170	   -0.037854	   -0.097312	    0.002329	   -0.094983	   -0.110873	   -0.014296	   -0.125169	   -0.004883	   -0.006719	   -0.011602	   -0.005658	   -0.002035	   -0.007693	   -0.004808	    0.001997	   -0.002811	   -0.035655	    0.001325	   -0.034330	   -0.041247	    0.042688	    0.001441	   -0.018644	    0.056301	    0.037657	   -0.057340	    0.026743	   -0.030597	   -0.022631	    0.017221	   -0.005409	   -0.005586	   -0.012394	   -0.017980
     2.250	0	0	    0	    0.011748	    0.036892	    0.048640	   -0.083464	    0.029036	   -0.054428	   -0.070576	    0.083781	    0.013205	   -0.003931	    0.095024	    0.091093	   -0.149280	   -0.027641	   -0.176921	   -0.175098	   -0.057555	   -0.232653	    0.011208	    0.005416	    0.016624	   -0.006900	   -0.000796	   -0.007696	   -0.017025	    0.012661	   -0.004364	   -0.137608	   -0.015137	   -0.152745	   -0.067241	    0.025344	   -0.041897	   -0.099972	    0.001821	   -0.098151	   -0.115449	   -0.014457	   -0.129905	   -0.007222	   -0.007371	   -0.014593	   -0.006183	   -0.002645	   -0.008828	   -0.004225	    0.001616	   -0.002609	   -0.041018	    0.000442	   -0.040576	   -0.046030	    0.042256	   -0.003773	   -0.024059	    0.057684	    0.033625	   -0.062014	    0.023964	   -0.038050	   -0.023658	    0.013698	   -0.009960	   -0.011468	   -0.008597	   -0.020065
     2.325	0	0	    0	    0.011142	    0.036223	    0.047365	   -0.076048	    0.028474	   -0.047574	   -0.068793	    0.084831	    0.016038	   -0.006936	    0.098227	    0.091291	   -0.147688	   -0.029548	   -0.177236	   -0.165419	   -0.058280	   -0.223699	    0.017217	    0.009531	    0.026748	   -0.005837	   -0.000052	   -0.005889	   -0.011061	    0.012933	    0.001872	   -0.123215	   -0.015209	   -0.138423	   -0.060897	    0.025020	   -0.035877	   -0.101285	    0.000637	   -0.100649	   -0.103512	   -0.016429	   -0.119940	    0.003325	   -0.005467	   -0.002143	   -0.002934	   -0.001233	   -0.004167	   -0.000060	    0.001440	    0.001380	   -0.033200	   -0.001449	   -0.034649	   -0.031222	    0.042847	    0.011625	   -0.007339	    0.055154	    0.047814	   -0.053316	    0.023106	   -0.030210	   -0.015396	    0.014503	   -0.000893	   -0.002372	   -0.012566	   -0.014938
     2.400	0	0	    0	    0.013205	    0.035849	    0.049055	   -0.071667	    0.031638	   -0.040029	   -0.066389	    0.085304	    0.018916	   -0.003882	    0.094125	    0.090243	   -0.144315	   -0.026069	   -0.170384	   -0.161529	   -0.054662	   -0.216191	    0.016062	    0.010371	    0.026433	   -0.002274	    0.002420	    0.000146	   -0.006443	    0.015540	    0.009097	   -0.117349	   -0.008518	   -0.125867	   -0.057732	    0.027973	   -0.029759	   -0.091924	    0.003199	   -0.088725	   -0.094431	   -0.008667	   -0.103098	    0.002690	   -0.000720	    0.001970	   -0.000479	   -0.003831	   -0.004310	    0.003046	    0.003513	    0.006559	   -0.024094	    0.003455	   -0.020639	   -0.024631	    0.048926	    0.024295	    0.000033	    0.063739	    0.063772	   -0.037313	    0.030096	   -0.007217	   -0.006209	    0.017676	    0.011467	   -0.002921	   -0.011243	   -0.014164
     2.475	0	0	    0	    0.014681	    0.034538	    0.049219	   -0.070782	    0.033493	   -0.037289	   -0.064475	    0.086105	    0.021631	   -0.003358	    0.095054	    0.091696	   -0.140391	   -0.024119	   -0.164510	   -0.155652	   -0.051977	   -0.207629	    0.013375	    0.012981	    0.026356	   -0.000914	    0.001376	    0.000462	   -0.005227	    0.015430	    0.010202	   -0.115380	   -0.005389	   -0.120769	   -0.057109	    0.029825	   -0.027284	   -0.088059	    0.004488	   -0.083572	   -0.090925	   -0.005838	   -0.096762	    0.001996	   -0.000783	    0.001213	   -0.000933	   -0.003550	   -0.004483	    0.003584	    0.004482	    0.008066	   -0.023043	    0.005194	   -0.017850	   -0.026016	    0.051617	    0.025601	   -0.001166	    0.065310	    0.064144	   -0.035939	    0.033047	   -0.002892	   -0.004418	    0.018299	    0.013881	   -0.005077	   -0.010385	   -0.015462
     2.550	0	0	    0	    0.014179	    0.034120	    0.048299	   -0.071490	    0.034412	   -0.037078	   -0.065637	    0.086942	    0.021305	   -0.004155	    0.094382	    0.090227	   -0.138596	   -0.020983	   -0.159579	   -0.149673	   -0.049954	   -0.199627	    0.014222	    0.010633	    0.024856	   -0.002256	    0.002698	    0.000442	   -0.006566	    0.016807	    0.010242	   -0.114774	   -0.004836	   -0.119611	   -0.057832	    0.030957	   -0.026875	   -0.088121	    0.006533	   -0.081587	   -0.090846	   -0.004802	   -0.095648	    0.001758	   -0.001181	    0.000577	   -0.001919	   -0.002348	   -0.004267	    0.003071	    0.004652	    0.007723	   -0.024179	    0.005916	   -0.018263	   -0.028371	    0.050528	    0.022157	   -0.005152	    0.064602	    0.059450	   -0.039289	    0.032699	   -0.006590	   -0.006453	    0.020228	    0.013774	   -0.003636	   -0.011390	   -0.015026
     2.625	0	0	    0	    0.013567	    0.034581	    0.048148	   -0.069919	    0.034392	   -0.035527	   -0.064072	    0.087215	    0.023142	   -0.003616	    0.093396	    0.089780	   -0.133210	   -0.015808	   -0.149018	   -0.144894	   -0.048878	   -0.193772	    0.018419	    0.004836	    0.023255	   -0.002483	    0.002940	    0.000457	   -0.006964	    0.017819	    0.010854	   -0.112927	   -0.003749	   -0.116676	   -0.058298	    0.031035	   -0.027263	   -0.087159	    0.008858	   -0.078301	   -0.087701	   -0.000365	   -0.088066	    0.006122	   -0.004648	    0.001473	   -0.000129	   -0.003872	   -0.004001	    0.003093	    0.004797	    0.007891	   -0.025217	    0.007680	   -0.017537	   -0.029215	    0.052282	    0.023067	   -0.003993	    0.065153	    0.061160	   -0.041165	    0.034272	   -0.006893	   -0.006855	    0.021312	    0.014457	   -0.003289	   -0.010054	   -0.013343
     2.700	0	0	    0	    0.013751	    0.034911	    0.048662	   -0.071273	    0.035158	   -0.036115	   -0.065107	    0.088731	    0.023624	   -0.002256	    0.092892	    0.090636	   -0.131125	   -0.013120	   -0.144245	   -0.143212	   -0.043952	   -0.187164	    0.012986	    0.009941	    0.022927	   -0.002880	    0.002601	   -0.000279	   -0.006818	    0.016920	    0.010102	   -0.115354	   -0.001844	   -0.117199	   -0.059006	    0.032357	   -0.026649	   -0.086107	    0.009153	   -0.076954	   -0.086971	    0.000237	   -0.086733	    0.004841	   -0.006061	   -0.001220	   -0.002733	   -0.001618	   -0.004352	    0.002811	    0.004868	    0.007679	   -0.025571	    0.007483	   -0.018088	   -0.032925	    0.052812	    0.019888	   -0.011988	    0.066996	    0.055008	   -0.044575	    0.035575	   -0.009000	   -0.007787	    0.021679	    0.013893	   -0.006349	   -0.008286	   -0.014635
     2.775	0	0	    0	    0.013057	    0.033362	    0.046419	   -0.073524	    0.035901	   -0.037623	   -0.066976	    0.089305	    0.022329	   -0.004422	    0.093583	    0.089161	   -0.127080	   -0.009326	   -0.136407	   -0.137884	   -0.042269	   -0.180152	    0.006695	    0.011394	    0.018088	   -0.004792	    0.002063	   -0.002729	   -0.009592	    0.017511	    0.007919	   -0.119486	   -0.000812	   -0.120298	   -0.061320	    0.032866	   -0.028454	   -0.087141	    0.011451	   -0.075690	   -0.088491	    0.002753	   -0.085738	   -0.000018	   -0.004175	   -0.004192	   -0.003814	   -0.002029	   -0.005843	    0.002004	    0.004999	    0.007003	   -0.030794	    0.008124	   -0.022670	   -0.040613	    0.053814	    0.013201	   -0.018868	    0.065583	    0.046714	   -0.052171	    0.036600	   -0.015570	   -0.011939	    0.021461	    0.009522	   -0.005073	   -0.010515	   -0.015587
     2.850	0	0	    0	    0.010122	    0.035341	    0.045463	   -0.076079	    0.036344	   -0.039735	   -0.068464	    0.088641	    0.020177	   -0.005797	    0.093642	    0.087845	   -0.125529	   -0.006265	   -0.131794	   -0.136195	   -0.039628	   -0.175823	    0.007660	    0.007909	    0.015569	   -0.006105	    0.001786	   -0.004319	   -0.012306	    0.018068	    0.005762	   -0.122116	   -0.001217	   -0.123333	   -0.062560	    0.032918	   -0.029642	   -0.088390	    0.012776	   -0.075614	   -0.091046	    0.002864	   -0.088182	   -0.001912	   -0.007396	   -0.009308	   -0.004191	   -0.002299	   -0.006490	    0.000809	    0.004926	    0.005735	   -0.033997	    0.007162	   -0.026835	   -0.046687	    0.053246	    0.006559	   -0.025154	    0.064437	    0.039283	   -0.057695	    0.034662	   -0.023033	   -0.013901	    0.019782	    0.005881	   -0.006846	   -0.010431	   -0.017277
     2.925	0	0	    0	    0.008876	    0.033959	    0.042835	   -0.078423	    0.036284	   -0.042139	   -0.070683	    0.088948	    0.018265	   -0.005588	    0.091119	    0.085531	   -0.123011	   -0.003047	   -0.126058	   -0.132164	   -0.038636	   -0.170800	    0.000168	    0.009692	    0.009860	   -0.006405	    0.000458	   -0.005948	   -0.013170	    0.016213	    0.003043	   -0.126314	   -0.000090	   -0.126404	   -0.065159	    0.033362	   -0.031797	   -0.089802	    0.013828	   -0.075974	   -0.091900	    0.003094	   -0.088805	   -0.005919	   -0.006470	   -0.012389	   -0.004642	   -0.003545	   -0.008187	   -0.000167	    0.004645	    0.004478	   -0.038557	    0.008095	   -0.030462	   -0.054091	    0.053718	   -0.000372	   -0.033139	    0.064066	    0.030927	   -0.063499	    0.033062	   -0.030437	   -0.016519	    0.018551	    0.002033	   -0.007742	   -0.010192	   -0.017934
     3.000	0	0	    0	    0.007845	    0.031831	    0.039676	   -0.080681	    0.036320	   -0.044361	   -0.071100	    0.087271	    0.016171	   -0.008397	    0.090231	    0.081834	   -0.119853	    0.001735	   -0.118119	   -0.129208	   -0.034804	   -0.164012	    0.007021	   -0.000446	    0.006575	   -0.009260	    0.001395	   -0.007865	   -0.014818	    0.015412	    0.000593	   -0.129520	    0.000409	   -0.129111	   -0.068090	    0.033197	   -0.034893	   -0.090823	    0.014550	   -0.076272	   -0.092624	    0.005556	   -0.087068	   -0.007849	   -0.006675	   -0.014524	   -0.007257	   -0.001306	   -0.008564	   -0.001158	    0.004301	    0.003143	   -0.041009	    0.005486	   -0.035523	   -0.060682	    0.053152	   -0.007529	   -0.041034	    0.064130	    0.023095	   -0.070847	    0.031966	   -0.038881	   -0.019308	    0.018041	   -0.001267	   -0.009838	   -0.011320	   -0.021158
     3.075	0	0	    0	    0.004076	    0.032097	    0.036174	   -0.079969	    0.035319	   -0.044650	   -0.071916	    0.086506	    0.014590	   -0.011510	    0.091413	    0.079903	   -0.118437	    0.004785	   -0.113651	   -0.123400	   -0.034662	   -0.158062	    0.003671	    0.004127	    0.007798	   -0.010179	    0.001149	   -0.009031	   -0.015850	    0.015075	   -0.000775	   -0.126726	   -0.000667	   -0.127393	   -0.068910	    0.032890	   -0.036020	   -0.093674	    0.015958	   -0.077716	   -0.093328	    0.005865	   -0.087463	   -0.004654	   -0.008830	   -0.013485	   -0.005756	   -0.001888	   -0.007644	   -0.001044	    0.003428	    0.002384	   -0.042702	    0.003825	   -0.038877	   -0.056355	    0.050206	   -0.006149	   -0.037604	    0.060229	    0.022625	   -0.076964	    0.031664	   -0.045300	   -0.020739	    0.017639	   -0.003099	   -0.006648	   -0.012583	   -0.019231
     3.150	0	0	    0	    0.008132	    0.031894	    0.040026	   -0.069940	    0.036827	   -0.033112	   -0.067488	    0.087604	    0.020116	   -0.008721	    0.087726	    0.079005	   -0.117784	    0.007606	   -0.110178	   -0.118620	   -0.029929	   -0.148549	    0.010262	    0.006595	    0.016857	   -0.003578	    0.000272	   -0.003307	   -0.008001	    0.018320	    0.010319	   -0.111298	    0.003879	   -0.107419	   -0.060740	    0.034192	   -0.026548	   -0.086954	    0.015093	   -0.071861	   -0.075804	    0.008907	   -0.066897	    0.003309	   -0.005126	   -0.001818	   -0.003720	   -0.000416	   -0.004135	    0.003968	    0.004566	    0.008534	   -0.028804	    0.007256	   -0.021549	   -0.038671	    0.056319	    0.017647	   -0.015877	    0.066463	    0.050586	   -0.051932	    0.032537	   -0.019395	   -0.006193	    0.019347	    0.013154	   -0.004347	   -0.011602	   -0.015948
     3.225	0	0	    0	    0.010212	    0.032635	    0.042848	   -0.067303	    0.039475	   -0.027828	   -0.065102	    0.088416	    0.023314	   -0.006388	    0.087602	    0.081214	   -0.113450	    0.008494	   -0.104956	   -0.113771	   -0.027839	   -0.141610	    0.013335	    0.003121	    0.016456	   -0.001491	    0.002915	    0.001424	   -0.005826	    0.019420	    0.013593	   -0.107089	    0.008049	   -0.099039	   -0.058662	    0.036382	   -0.022280	   -0.080236	    0.018361	   -0.061875	   -0.069572	    0.013749	   -0.055824	    0.005697	   -0.005596	    0.000101	    0.001985	   -0.005526	   -0.003541	    0.005706	    0.005574	    0.011280	   -0.024555	    0.011493	   -0.013062	   -0.035042	    0.059438	    0.024395	   -0.011628	    0.069765	    0.058137	   -0.045863	    0.039209	   -0.006654	   -0.001010	    0.021789	    0.020779	   -0.002728	   -0.012919	   -0.015646
     3.300	0	0	    0	    0.012034	    0.030826	    0.042860	   -0.065499	    0.039706	   -0.025793	   -0.064472	    0.089707	    0.025235	   -0.006350	    0.088005	    0.081656	   -0.112388	    0.011427	   -0.100961	   -0.110672	   -0.025179	   -0.135851	    0.008914	    0.006025	    0.014938	   -0.000905	    0.003880	    0.002975	   -0.003668	    0.019031	    0.015363	   -0.105101	    0.009397	   -0.095704	   -0.057925	    0.038151	   -0.019774	   -0.078794	    0.020935	   -0.057859	   -0.066506	    0.015509	   -0.050996	    0.002576	   -0.003411	   -0.000834	   -0.004443	    0.000485	   -0.003958	    0.006012	    0.006843	    0.012855	   -0.022767	    0.010584	   -0.012183	   -0.036631	    0.061737	    0.025106	   -0.013492	    0.071732	    0.058239	   -0.044395	    0.041230	   -0.003165	    0.000128	    0.022850	    0.022978	   -0.005067	   -0.011128	   -0.016196
     3.375	0	0	    0	    0.011299	    0.031071	    0.042370	   -0.065908	    0.040070	   -0.025838	   -0.064616	    0.089971	    0.025355	   -0.006076	    0.088242	    0.082166	   -0.110214	    0.013504	   -0.096710	   -0.107564	   -0.024710	   -0.132275	    0.007633	    0.009251	    0.016883	   -0.001522	    0.004483	    0.002961	   -0.004660	    0.019430	    0.014769	   -0.105283	    0.008647	   -0.096636	   -0.057079	    0.038334	   -0.018745	   -0.078171	    0.022771	   -0.055400	   -0.067614	    0.016917	   -0.050697	    0.006474	   -0.006535	   -0.000060	   -0.002588	   -0.000958	   -0.003546	    0.006789	    0.006527	    0.013316	   -0.023963	    0.011202	   -0.012762	   -0.036386	    0.060916	    0.024530	   -0.013441	    0.071237	    0.057796	   -0.045562	    0.041121	   -0.004441	    0.000173	    0.020722	    0.020895	   -0.003100	   -0.011356	   -0.014456
     3.450	0	0	    0	    0.011378	    0.030668	    0.042046	   -0.065002	    0.040317	   -0.024684	   -0.064511	    0.090825	    0.026314	   -0.005342	    0.087242	    0.081900	   -0.107523	    0.014828	   -0.092695	   -0.105411	   -0.021207	   -0.126618	    0.007294	    0.008056	    0.015349	   -0.000286	    0.003520	    0.003234	   -0.004113	    0.019300	    0.015186	   -0.104137	    0.009628	   -0.094509	   -0.056796	    0.039281	   -0.017515	   -0.075903	    0.022609	   -0.053295	   -0.064354	    0.016561	   -0.047793	    0.003834	   -0.006935	   -0.003101	   -0.003404	   -0.000227	   -0.003631	    0.006488	    0.007447	    0.013935	   -0.022175	    0.010845	   -0.011330	   -0.038021	    0.062672	    0.024652	   -0.015551	    0.072345	    0.056794	   -0.043535	    0.040232	   -0.003303	   -0.000726	    0.021919	    0.021193	   -0.005601	   -0.011163	   -0.016763
     3.525	0	0	    0	    0.009500	    0.030957	    0.040457	   -0.066387	    0.040533	   -0.025854	   -0.064235	    0.090126	    0.025891	   -0.007367	    0.088376	    0.081009	   -0.105178	    0.016643	   -0.088535	   -0.101239	   -0.020672	   -0.121911	    0.003041	    0.007695	    0.010736	   -0.002473	    0.005777	    0.003304	   -0.004251	    0.017571	    0.013320	   -0.105825	    0.010342	   -0.095482	   -0.059004	    0.040561	   -0.018443	   -0.076580	    0.024569	   -0.052011	   -0.065426	    0.018067	   -0.047358	   -0.001328	   -0.004456	   -0.005784	   -0.002685	   -0.002570	   -0.005256	    0.006802	    0.006940	    0.013742	   -0.023950	    0.010614	   -0.013336	   -0.044130	    0.063119	    0.018989	   -0.023307	    0.072901	    0.049594	   -0.046616	    0.039554	   -0.007062	   -0.000217	    0.018960	    0.018743	   -0.004339	   -0.012583	   -0.016922
     3.600	0	0	    0	    0.009066	    0.029066	    0.038133	   -0.068064	    0.039571	   -0.028493	   -0.066231	    0.090454	    0.024223	   -0.006142	    0.084884	    0.078742	   -0.104604	    0.019551	   -0.085052	   -0.102273	   -0.018283	   -0.120556	    0.007028	    0.001783	    0.008812	   -0.002407	    0.004164	    0.001757	   -0.007199	    0.018517	    0.011318	   -0.110932	    0.009829	   -0.101103	   -0.061072	    0.039700	   -0.021372	   -0.077367	    0.024639	   -0.052728	   -0.068660	    0.018367	   -0.050293	   -0.001631	   -0.006243	   -0.007874	   -0.003143	   -0.001975	   -0.005117	    0.005360	    0.007724	    0.013084	   -0.028386	    0.011506	   -0.016880	   -0.048895	    0.062527	    0.013632	   -0.027067	    0.072163	    0.045096	   -0.052397	    0.040080	   -0.012317	   -0.004952	    0.019965	    0.015013	   -0.005421	   -0.011235	   -0.016656
     3.675	0	0	    0	    0.007776	    0.028267	    0.036043	   -0.071624	    0.040470	   -0.031154	   -0.068015	    0.091084	    0.023069	   -0.005977	    0.084599	    0.078622	   -0.104476	    0.019974	   -0.084502	   -0.101740	   -0.017843	   -0.119583	    0.000501	    0.006818	    0.007319	   -0.003360	    0.004353	    0.000993	   -0.009411	    0.017974	    0.008562	   -0.115583	    0.009815	   -0.105769	   -0.063949	    0.040452	   -0.023497	   -0.078762	    0.023544	   -0.055217	   -0.072012	    0.017824	   -0.054188	   -0.005159	   -0.006907	   -0.012066	   -0.004815	   -0.001324	   -0.006139	    0.004344	    0.007512	    0.011856	   -0.031413	    0.010117	   -0.021296	   -0.054071	    0.061869	    0.007798	   -0.031830	    0.070903	    0.039072	   -0.059646	    0.040711	   -0.018935	   -0.008778	    0.019186	    0.010408	   -0.006829	   -0.012207	   -0.019036
     3.750	0	0	    0	    0.005009	    0.028619	    0.033628	   -0.074042	    0.039806	   -0.034237	   -0.069641	    0.090793	    0.021152	   -0.008506	    0.085271	    0.076765	   -0.104096	    0.020486	   -0.083610	   -0.102810	   -0.017456	   -0.120266	    0.000557	    0.001119	    0.001676	   -0.005229	    0.004814	   -0.000415	   -0.011338	    0.017690	    0.006352	   -0.119775	    0.008452	   -0.111323	   -0.067240	    0.040692	   -0.026548	   -0.081042	    0.023756	   -0.057286	   -0.074515	    0.016796	   -0.057719	   -0.008193	   -0.005742	   -0.013935	   -0.006543	   -0.000760	   -0.007303	    0.003600	    0.007632	    0.011232	   -0.035804	    0.010358	   -0.025446	   -0.060095	    0.061406	    0.001311	   -0.039270	    0.071633	    0.032363	   -0.063547	    0.037893	   -0.025653	   -0.011086	    0.017769	    0.006683	   -0.006309	   -0.011312	   -0.017620
     3.825	0	0	    0	    0.002694	    0.028600	    0.031295	   -0.076961	    0.039631	   -0.037330	   -0.070631	    0.090112	    0.019481	   -0.008755	    0.085442	    0.076687	   -0.104946	    0.021332	   -0.083613	   -0.103916	   -0.017860	   -0.121777	    0.000691	   -0.001201	   -0.000510	   -0.006334	    0.003894	   -0.002440	   -0.013170	    0.017152	    0.003982	   -0.123746	    0.007228	   -0.116518	   -0.070046	    0.041311	   -0.028735	   -0.084440	    0.024732	   -0.059708	   -0.081378	    0.017746	   -0.063632	   -0.007326	   -0.010453	   -0.017778	   -0.005802	   -0.002690	   -0.008492	    0.002808	    0.007572	    0.010380	   -0.040071	    0.009853	   -0.030217	   -0.065716	    0.060671	   -0.005045	   -0.044538	    0.070874	    0.026335	   -0.069889	    0.038248	   -0.031641	   -0.014251	    0.016002	    0.001751	   -0.009148	   -0.010614	   -0.019762
     3.900	0	0	    0	    0.004182	    0.027197	    0.031379	   -0.069540	    0.038106	   -0.031434	   -0.068180	    0.089938	    0.021758	   -0.008718	    0.084430	    0.075711	   -0.105789	    0.021680	   -0.084109	   -0.099194	   -0.017637	   -0.116831	    0.008647	    0.000712	    0.009359	   -0.004672	    0.004020	   -0.000652	   -0.008102	    0.016648	    0.008546	   -0.112916	    0.005588	   -0.107328	   -0.063874	    0.039341	   -0.024533	   -0.084871	    0.022908	   -0.061962	   -0.070826	    0.012542	   -0.058284	    0.004559	   -0.011333	   -0.006774	   -0.001972	   -0.001303	   -0.003276	    0.005729	    0.006388	    0.012117	   -0.031456	    0.007355	   -0.024101	   -0.047998	    0.060665	    0.012666	   -0.024255	    0.069719	    0.045465	   -0.056494	    0.029776	   -0.026718	   -0.003486	    0.011977	    0.008491	   -0.004907	   -0.009655	   -0.014562
     3.975	0	0	    0	    0.009349	    0.027914	    0.037263	   -0.063752	    0.040755	   -0.022998	   -0.064154	    0.091404	    0.027250	   -0.005758	    0.084172	    0.078413	   -0.102175	    0.021394	   -0.080782	   -0.094165	   -0.016067	   -0.110232	    0.016121	   -0.001324	    0.014797	    0.000395	    0.005006	    0.005401	   -0.003628	    0.019502	    0.015874	   -0.103571	    0.010490	   -0.093081	   -0.058192	    0.042048	   -0.016144	   -0.075204	    0.023121	   -0.052083	   -0.061024	    0.019379	   -0.041645	    0.009387	   -0.009901	   -0.000514	   -0.000374	   -0.000682	   -0.001056	    0.008447	    0.007510	    0.015957	   -0.020963	    0.012115	   -0.008848	   -0.040233	    0.065955	    0.025723	   -0.017228	    0.076640	    0.059412	   -0.041911	    0.039495	   -0.002415	    0.003710	    0.018234	    0.021945	   -0.002206	   -0.010910	   -0.013116
     4.050	0	0	    0	    0.010725	    0.028311	    0.039036	   -0.060496	    0.040826	   -0.019669	   -0.062907	    0.093043	    0.030136	   -0.004632	    0.084681	    0.080049	   -0.100020	    0.023271	   -0.076750	   -0.092523	   -0.012824	   -0.105347	    0.010967	    0.003184	    0.014152	    0.000825	    0.006606	    0.007430	   -0.002629	    0.019874	    0.017245	   -0.100620	    0.012348	   -0.088272	   -0.056665	    0.043926	   -0.012739	   -0.072460	    0.025813	   -0.046647	   -0.057271	    0.020827	   -0.036444	    0.007875	   -0.006916	    0.000959	   -0.000241	   -0.000834	   -0.001075	    0.008769	    0.008129	    0.016898	   -0.019132	    0.013613	   -0.005519	   -0.039185	    0.068157	    0.028972	   -0.014951	    0.078087	    0.063136	   -0.038917	    0.042945	    0.004028	    0.005816	    0.019203	    0.025020	   -0.002759	   -0.009458	   -0.012217
     4.125	0	0	    0	    0.011040	    0.028951	    0.039991	   -0.061389	    0.041606	   -0.019783	   -0.062536	    0.093801	    0.031265	   -0.003605	    0.084278	    0.080673	   -0.099733	    0.024333	   -0.075400	   -0.091635	   -0.013009	   -0.104644	    0.009627	    0.004884	    0.014511	    0.001003	    0.007285	    0.008288	   -0.001477	    0.018519	    0.017041	   -0.099714	    0.012954	   -0.086760	   -0.056628	    0.044858	   -0.011770	   -0.071296	    0.026348	   -0.044948	   -0.058068	    0.022838	   -0.035230	    0.007888	   -0.007255	    0.000633	   -0.000268	    0.000395	    0.000128	    0.008926	    0.008212	    0.017138	   -0.019753	    0.016461	   -0.003293	   -0.040004	    0.068148	    0.028144	   -0.018124	    0.078849	    0.060726	   -0.039319	    0.043678	    0.004360	    0.005689	    0.018411	    0.024100	   -0.002035	   -0.009992	   -0.012027
     4.200	0	0	    0	    0.010836	    0.028660	    0.039497	   -0.060232	    0.040838	   -0.019394	   -0.060967	    0.092810	    0.031843	   -0.004858	    0.084963	    0.080106	   -0.098518	    0.025231	   -0.073287	   -0.091200	   -0.011591	   -0.102792	    0.015822	   -0.000626	    0.015195	    0.001748	    0.007293	    0.009041	   -0.003063	    0.019776	    0.016713	   -0.099158	    0.012959	   -0.086198	   -0.055349	    0.045262	   -0.010086	   -0.070970	    0.026620	   -0.044350	   -0.056987	    0.022032	   -0.034954	    0.009926	   -0.010742	   -0.000817	    0.001094	   -0.001676	   -0.000582	    0.008641	    0.008437	    0.017078	   -0.020631	    0.015718	   -0.004913	   -0.040246	    0.068023	    0.027777	   -0.018563	    0.078404	    0.059841	   -0.039879	    0.043131	    0.003252	    0.004275	    0.018106	    0.022381	   -0.002223	   -0.008993	   -0.011215
     4.275	0	0	    0	    0.010398	    0.028479	    0.038877	   -0.060499	    0.040876	   -0.019623	   -0.061717	    0.093515	    0.031798	   -0.004434	    0.083308	    0.078874	   -0.096853	    0.025505	   -0.071348	   -0.088102	   -0.011403	   -0.099505	    0.008066	    0.005201	    0.013267	    0.001730	    0.007010	    0.008739	   -0.003444	    0.018986	    0.015542	   -0.099950	    0.013831	   -0.086119	   -0.056279	    0.046630	   -0.009649	   -0.070000	    0.027076	   -0.042923	   -0.056693	    0.023171	   -0.033522	    0.003197	   -0.005249	   -0.002052	    0.000297	   -0.002078	   -0.001781	    0.009038	    0.007779	    0.016817	   -0.021333	    0.014142	   -0.007190	   -0.043565	    0.067352	    0.023787	   -0.020927	    0.076518	    0.055591	   -0.039892	    0.042557	    0.002664	    0.005009	    0.016759	    0.021768	    0.000322	   -0.011240	   -0.010918
     4.350	0	0	    0	    0.009910	    0.026656	    0.036566	   -0.062718	    0.040614	   -0.022104	   -0.062977	    0.093793	    0.030816	   -0.002429	    0.080693	    0.078264	   -0.097139	    0.026237	   -0.070902	   -0.090467	   -0.010921	   -0.101389	    0.004161	    0.003776	    0.007937	   -0.000363	    0.007505	    0.007143	   -0.005265	    0.017920	    0.012655	   -0.102867	    0.012700	   -0.090167	   -0.057338	    0.046183	   -0.011155	   -0.070805	    0.026362	   -0.044442	   -0.059215	    0.022025	   -0.037190	   -0.000323	   -0.005480	   -0.005803	   -0.001699	   -0.000476	   -0.002175	    0.007945	    0.008366	    0.016311	   -0.023284	    0.012535	   -0.010749	   -0.048919	    0.067589	    0.018670	   -0.028474	    0.078047	    0.049572	   -0.043467	    0.040680	   -0.002787	    0.002868	    0.014818	    0.017686	   -0.003847	   -0.008349	   -0.012196
     4.425	0	0	    0	    0.006852	    0.026525	    0.033377	   -0.064954	    0.040449	   -0.024505	   -0.062876	    0.092854	    0.029978	   -0.005540	    0.082621	    0.077082	   -0.095718	    0.026102	   -0.069616	   -0.090758	   -0.010833	   -0.101591	    0.002288	    0.005158	    0.007445	   -0.000618	    0.006117	    0.005499	   -0.007586	    0.017998	    0.010412	   -0.105452	    0.013602	   -0.091850	   -0.059901	    0.047093	   -0.012808	   -0.073144	    0.026469	   -0.046675	   -0.062356	    0.022324	   -0.040032	   -0.000029	   -0.007186	   -0.007215	   -0.003299	    0.000758	   -0.002541	    0.006736	    0.008319	    0.015054	   -0.027180	    0.013771	   -0.013409	   -0.054454	    0.066459	    0.012005	   -0.034838	    0.077087	    0.042249	   -0.049993	    0.040030	   -0.009963	   -0.000159	    0.014394	    0.014235	   -0.004932	   -0.007793	   -0.012725
     4.500	0	0	    0	    0.004769	    0.026093	    0.030862	   -0.066085	    0.038777	   -0.027308	   -0.063736	    0.092084	    0.028349	   -0.005795	    0.081460	    0.075665	   -0.095027	    0.026360	   -0.068667	   -0.089889	   -0.010548	   -0.100437	    0.005997	   -0.001686	    0.004311	   -0.001750	    0.006486	    0.004737	   -0.009396	    0.017699	    0.008304	   -0.108595	    0.012802	   -0.095793	   -0.062359	    0.047644	   -0.014715	   -0.074296	    0.026085	   -0.048211	   -0.064380	    0.021078	   -0.043302	   -0.000654	   -0.010717	   -0.011372	   -0.003761	    0.001359	   -0.002402	    0.006045	    0.008075	    0.014120	   -0.030289	    0.011781	   -0.018508	   -0.060566	    0.065819	    0.005253	   -0.041034	    0.075822	    0.034788	   -0.055437	    0.039305	   -0.016132	   -0.004260	    0.014485	    0.010225	   -0.004019	   -0.009204	   -0.013223
     4.575	0	0	    0	    0.003898	    0.024798	    0.028696	   -0.070480	    0.040192	   -0.030288	   -0.065838	    0.092778	    0.026941	   -0.004660	    0.077884	    0.073224	   -0.093764	    0.026324	   -0.067441	   -0.090786	   -0.009486	   -0.100271	   -0.000354	    0.000142	   -0.000212	   -0.001534	    0.004929	    0.003395	   -0.011017	    0.016909	    0.005892	   -0.113218	    0.013538	   -0.099680	   -0.063769	    0.046657	   -0.017112	   -0.074713	    0.024451	   -0.050262	   -0.067067	    0.021311	   -0.045756	   -0.002687	   -0.009454	   -0.012142	   -0.005537	    0.002159	   -0.003378	    0.005357	    0.007579	    0.012936	   -0.033837	    0.010559	   -0.023278	   -0.066342	    0.065145	   -0.001197	   -0.047094	    0.075005	    0.027910	   -0.060629	    0.038002	   -0.022627	   -0.006301	    0.012513	    0.006213	   -0.006191	   -0.007353	   -0.013544
     4.650	0	0	    0	    0.000673	    0.025959	    0.026632	   -0.072354	    0.040008	   -0.032346	   -0.067554	    0.093205	    0.025651	   -0.007160	    0.077957	    0.070797	   -0.093841	    0.026791	   -0.067051	   -0.090712	   -0.008755	   -0.099467	   -0.003947	    0.003029	   -0.000918	   -0.003307	    0.005814	    0.002507	   -0.013537	    0.017052	    0.003515	   -0.115860	    0.013953	   -0.101907	   -0.067518	    0.048436	   -0.019082	   -0.078044	    0.024868	   -0.053176	   -0.069914	    0.021210	   -0.048704	   -0.006046	   -0.009703	   -0.015750	   -0.005843	    0.001647	   -0.004195	    0.004556	    0.007171	    0.011727	   -0.037772	    0.009937	   -0.027835	   -0.073141	    0.064202	   -0.008939	   -0.053820	    0.073236	    0.019416	   -0.065617	    0.036825	   -0.028793	   -0.009809	    0.012539	    0.002730	   -0.005993	   -0.008364	   -0.014357
     4.725	0	0	    0	   -0.000585	    0.024941	    0.024356	   -0.074640	    0.039577	   -0.035064	   -0.068580	    0.092730	    0.024150	   -0.006905	    0.074931	    0.068027	   -0.094356	    0.026905	   -0.067451	   -0.091838	   -0.008940	   -0.100779	   -0.001599	    0.000130	   -0.001469	   -0.004282	    0.006367	    0.002086	   -0.015414	    0.016828	    0.001415	   -0.117452	    0.012092	   -0.105359	   -0.069904	    0.047667	   -0.022236	   -0.080575	    0.023358	   -0.057217	   -0.074874	    0.021287	   -0.053586	   -0.006092	   -0.010931	   -0.017023	   -0.005510	    0.001110	   -0.004400	    0.003301	    0.007249	    0.010549	   -0.043864	    0.011520	   -0.032343	   -0.075788	    0.062046	   -0.013741	   -0.057101	    0.071478	    0.014377	   -0.071791	    0.034875	   -0.036916	   -0.013340	    0.012311	   -0.001029	   -0.005824	   -0.007873	   -0.013697
     4.800	0	0	    0	    0.002678	    0.023366	    0.026043	   -0.064912	    0.038710	   -0.026202	   -0.065623	    0.092967	    0.027344	   -0.007703	    0.074628	    0.066925	   -0.093894	    0.025770	   -0.068124	   -0.087227	   -0.007693	   -0.094921	    0.000213	    0.008352	    0.008565	   -0.000406	    0.005079	    0.004673	   -0.007985	    0.016100	    0.008116	   -0.103392	    0.012569	   -0.090823	   -0.061753	    0.047264	   -0.014489	   -0.078680	    0.021147	   -0.057533	   -0.059961	    0.018103	   -0.041858	    0.004519	   -0.009738	   -0.005219	   -0.000542	    0.001250	    0.000708	    0.007417	    0.006218	    0.013634	   -0.030231	    0.008419	   -0.021812	   -0.054226	    0.062917	    0.008690	   -0.034012	    0.072625	    0.038612	   -0.054119	    0.031977	   -0.022142	   -0.000907	    0.010045	    0.009138	   -0.000779	   -0.009191	   -0.009970
     4.875	0	0	    0	    0.006549	    0.024441	    0.030990	   -0.060892	    0.041668	   -0.019224	   -0.061941	    0.094002	    0.032061	   -0.003602	    0.073456	    0.069854	   -0.091268	    0.026367	   -0.064901	   -0.083424	   -0.006977	   -0.090402	    0.002470	    0.005607	    0.008077	    0.002072	    0.006410	    0.008482	   -0.004126	    0.018471	    0.014345	   -0.097148	    0.017706	   -0.079442	   -0.057932	    0.049258	   -0.008674	   -0.070355	    0.022792	   -0.047563	   -0.053452	    0.025223	   -0.028229	    0.003387	   -0.006118	   -0.002730	   -0.002442	    0.002618	    0.000176	    0.008980	    0.007599	    0.016579	   -0.023369	    0.013357	   -0.010012	   -0.048577	    0.068109	    0.019532	   -0.027302	    0.077728	    0.050426	   -0.041808	    0.039456	   -0.002352	    0.004898	    0.014838	    0.019736	    0.000129	   -0.009550	   -0.009421
     4.950	0	0	    0	    0.007721	    0.023859	    0.031581	   -0.058718	    0.041518	   -0.017201	   -0.060230	    0.094636	    0.034406	   -0.001459	    0.073391	    0.071932	   -0.090574	    0.027407	   -0.063167	   -0.082863	   -0.006386	   -0.089249	    0.007417	   -0.000874	    0.006543	    0.003184	    0.006337	    0.009521	   -0.003089	    0.018727	    0.015637	   -0.093984	    0.018205	   -0.075779	   -0.055710	    0.050310	   -0.005400	   -0.067021	    0.023507	   -0.043514	   -0.050798	    0.025842	   -0.024955	    0.006692	   -0.006775	   -0.000084	   -0.001793	    0.002358	    0.000565	    0.009638	    0.007876	    0.017514	   -0.021269	    0.014212	   -0.007057	   -0.047496	    0.069930	    0.022434	   -0.026732	    0.080713	    0.053981	   -0.037206	    0.040595	    0.003389	    0.006727	    0.016195	    0.022922	   -0.000437	   -0.007087	   -0.007524
     5.025	0	0	    0	    0.007145	    0.024107	    0.031251	   -0.059323	    0.042363	   -0.016960	   -0.059220	    0.094220	    0.035000	   -0.003050	    0.075403	    0.072353	   -0.089995	    0.028614	   -0.061382	   -0.081345	   -0.005412	   -0.086757	    0.005544	    0.004897	    0.010441	    0.001871	    0.007004	    0.008875	   -0.004291	    0.019478	    0.015187	   -0.093389	    0.018824	   -0.074565	   -0.055095	    0.050919	   -0.004176	   -0.067658	    0.025714	   -0.041944	   -0.051392	    0.026815	   -0.024577	    0.005225	   -0.007312	   -0.002088	   -0.000129	    0.001612	    0.001483	    0.009267	    0.008021	    0.017288	   -0.021493	    0.014936	   -0.006557	   -0.047300	    0.068600	    0.021300	   -0.027461	    0.078948	    0.051486	   -0.039420	    0.041459	    0.002040	    0.005828	    0.015616	    0.021445	   -0.001168	   -0.006794	   -0.007962
     5.100	0	0	    0	    0.006539	    0.023194	    0.029732	   -0.057615	    0.041905	   -0.015710	   -0.057717	    0.094365	    0.036649	   -0.001871	    0.073838	    0.071967	   -0.087021	    0.028368	   -0.058653	   -0.079924	   -0.003559	   -0.083483	    0.004298	    0.003665	    0.007963	    0.002183	    0.007088	    0.009271	   -0.003764	    0.019556	    0.015792	   -0.091770	    0.019937	   -0.071833	   -0.054207	    0.052144	   -0.002063	   -0.065363	    0.025191	   -0.040172	   -0.048350	    0.026452	   -0.021899	    0.009261	   -0.011909	   -0.002648	   -0.000750	    0.001960	    0.001210	    0.009684	    0.007772	    0.017456	   -0.019967	    0.014669	   -0.005299	   -0.047401	    0.068593	    0.021192	   -0.027924	    0.079674	    0.051750	   -0.037661	    0.040629	    0.002968	    0.006043	    0.016324	    0.022368	   -0.001886	   -0.007135	   -0.009021
     5.175	0	0	    0	    0.006003	    0.023266	    0.029269	   -0.058218	    0.042346	   -0.015872	   -0.057542	    0.093784	    0.036243	   -0.002221	    0.073617	    0.071396	   -0.085068	    0.028468	   -0.056601	   -0.077015	   -0.003599	   -0.080614	    0.004882	    0.001345	    0.006227	    0.002750	    0.006796	    0.009546	   -0.003459	    0.018370	    0.014911	   -0.092240	    0.020165	   -0.072074	   -0.054082	    0.052531	   -0.001551	   -0.064139	    0.024841	   -0.039298	   -0.048781	    0.027286	   -0.021495	    0.003939	   -0.007296	   -0.003357	   -0.001777	    0.003090	    0.001312	    0.009402	    0.007688	    0.017090	   -0.022233	    0.015687	   -0.006546	   -0.051484	    0.068520	    0.017037	   -0.033198	    0.079826	    0.046628	   -0.040107	    0.041403	    0.001297	    0.005483	    0.015618	    0.021101	   -0.001715	   -0.006452	   -0.008167
     5.250	0	0	    0	    0.003776	    0.023040	    0.026816	   -0.059143	    0.041319	   -0.017824	   -0.058390	    0.094050	    0.035661	   -0.002604	    0.072559	    0.069955	   -0.083640	    0.029767	   -0.053873	   -0.075876	   -0.002496	   -0.078372	    0.003144	    0.000387	    0.003531	    0.001437	    0.007336	    0.008773	   -0.006109	    0.019203	    0.013094	   -0.094901	    0.021095	   -0.073806	   -0.056362	    0.053436	   -0.002926	   -0.065311	    0.025527	   -0.039784	   -0.050194	    0.026791	   -0.023403	    0.000393	   -0.008139	   -0.007746	   -0.002715	    0.003246	    0.000530	    0.008476	    0.007424	    0.015901	   -0.022558	    0.012089	   -0.010468	   -0.057165	    0.067277	    0.010112	   -0.038724	    0.077259	    0.038536	   -0.042607	    0.037459	   -0.005147	    0.003733	    0.013284	    0.017017	   -0.003157	   -0.006568	   -0.009725
     5.325	0	0	    0	    0.002427	    0.021842	    0.024268	   -0.061033	    0.041279	   -0.019754	   -0.059042	    0.093371	    0.034330	   -0.001566	    0.069345	    0.067779	   -0.082394	    0.030313	   -0.052081	   -0.074358	   -0.001800	   -0.076158	    0.000557	    0.001119	    0.001676	    0.000448	    0.007777	    0.008225	   -0.007922	    0.019148	    0.011226	   -0.096562	    0.020272	   -0.076289	   -0.058478	    0.053245	   -0.005233	   -0.066373	    0.025498	   -0.040876	   -0.053281	    0.027694	   -0.025587	   -0.000787	   -0.008628	   -0.009415	   -0.001321	    0.001433	    0.000111	    0.007686	    0.007096	    0.014782	   -0.028473	    0.014984	   -0.013489	   -0.062296	    0.066409	    0.004113	   -0.042676	    0.075399	    0.032723	   -0.050004	    0.039469	   -0.010535	   -0.000400	    0.014570	    0.014171	   -0.002435	   -0.006482	   -0.008917
     5.400	0	0	    0	    0.001213	    0.021542	    0.022755	   -0.063355	    0.040898	   -0.022457	   -0.060610	    0.093074	    0.032464	   -0.004221	    0.069786	    0.065565	   -0.082071	    0.031228	   -0.050843	   -0.075397	   -0.001367	   -0.076765	   -0.001409	   -0.001637	   -0.003046	    0.001315	    0.007107	    0.008423	   -0.009516	    0.019207	    0.009691	   -0.100233	    0.018883	   -0.081350	   -0.059708	    0.051939	   -0.007769	   -0.067794	    0.024704	   -0.043089	   -0.055981	    0.026310	   -0.029671	   -0.002889	   -0.011087	   -0.013976	   -0.002742	    0.001694	   -0.001047	    0.006882	    0.006833	    0.013715	   -0.032063	    0.013778	   -0.018285	   -0.066832	    0.064920	   -0.001912	   -0.049014	    0.075224	    0.026210	   -0.054436	    0.036975	   -0.017461	   -0.003421	    0.013540	    0.010118	   -0.002047	   -0.008812	   -0.010859
     5.475	0	0	    0	   -0.000527	    0.020564	    0.020037	   -0.065932	    0.041306	   -0.024626	   -0.061805	    0.092219	    0.030415	   -0.005057	    0.068666	    0.063609	   -0.081380	    0.030642	   -0.050739	   -0.075774	   -0.001304	   -0.077078	   -0.005579	    0.001675	   -0.003904	   -0.001020	    0.008304	    0.007285	   -0.010972	    0.017904	    0.006932	   -0.103004	    0.018678	   -0.084327	   -0.061959	    0.052402	   -0.009558	   -0.069466	    0.024284	   -0.045182	   -0.059287	    0.026844	   -0.032443	   -0.002736	   -0.013016	   -0.015752	   -0.002517	    0.000257	   -0.002260	    0.005826	    0.006607	    0.012433	   -0.034348	    0.012445	   -0.021903	   -0.071372	    0.063559	   -0.007812	   -0.054362	    0.074096	    0.019734	   -0.058700	    0.035461	   -0.023238	   -0.006281	    0.012859	    0.006578	   -0.002950	   -0.008271	   -0.011221
     5.550	0	0	    0	   -0.002030	    0.019486	    0.017456	   -0.067477	    0.040089	   -0.027389	   -0.063451	    0.092315	    0.028864	   -0.004733	    0.066882	    0.062149	   -0.081893	    0.030860	   -0.051033	   -0.074653	   -0.002468	   -0.077121	   -0.003377	   -0.007422	   -0.010799	   -0.001932	    0.006979	    0.005047	   -0.013926	    0.018384	    0.004457	   -0.107287	    0.018330	   -0.088957	   -0.064057	    0.052365	   -0.011692	   -0.071450	    0.023831	   -0.047618	   -0.062428	    0.025870	   -0.036558	   -0.007028	   -0.013960	   -0.020987	   -0.004742	    0.001020	   -0.003722	    0.004832	    0.005964	    0.010796	   -0.039128	    0.011444	   -0.027684	   -0.078108	    0.062416	   -0.015692	   -0.060476	    0.072320	    0.011844	   -0.063918	    0.034218	   -0.029700	   -0.009120	    0.011287	    0.002167	   -0.005444	   -0.009383	   -0.014827
     5.625	0	0	    0	   -0.002565	    0.018172	    0.015607	   -0.061964	    0.038883	   -0.023081	   -0.062553	    0.090515	    0.027962	   -0.006480	    0.066138	    0.059658	   -0.080320	    0.030771	   -0.049549	   -0.069758	   -0.002606	   -0.072364	   -0.000333	   -0.001148	   -0.001481	   -0.003091	    0.006263	    0.003171	   -0.013691	    0.017500	    0.003810	   -0.100118	    0.016465	   -0.083653	   -0.060234	    0.051207	   -0.009027	   -0.072192	    0.022833	   -0.049359	   -0.058976	    0.023035	   -0.035941	    0.001409	   -0.013231	   -0.011822	    0.002115	   -0.002798	   -0.000683	    0.001618	    0.006768	    0.008386	   -0.035072	    0.011380	   -0.023692	   -0.066096	    0.058626	   -0.007470	   -0.047561	    0.067271	    0.019711	   -0.062385	    0.031630	   -0.030755	   -0.006043	    0.009018	    0.002975	    0.001954	   -0.011023	   -0.009069
     5.700	0	0	    0	    0.005619	    0.019641	    0.025260	   -0.052462	    0.043281	   -0.009181	   -0.056298	    0.090273	    0.033976	   -0.003393	    0.063960	    0.060567	   -0.075043	    0.031839	   -0.043204	   -0.065326	    0.002093	   -0.063234	    0.002881	    0.000701	    0.003582	   -0.001502	   -0.003041	   -0.004543	   -0.011670	    0.019562	    0.007892	   -0.084616	    0.022907	   -0.061708	   -0.054052	    0.055068	    0.001016	   -0.060902	    0.021548	   -0.039354	   -0.043680	    0.028316	   -0.015364	    0.005793	   -0.010236	   -0.004443	   -0.000121	    0.002756	    0.002635	   -0.000043	    0.003515	    0.003473	   -0.019123	    0.018016	   -0.001107	   -0.054888	    0.064241	    0.009352	   -0.035347	    0.074142	    0.038795	   -0.039987	    0.035811	   -0.004176	    0.005716	    0.012872	    0.018589	   -0.002087	   -0.005681	   -0.007768
     5.775	0	0	    0	    0.007272	    0.022799	    0.030071	   -0.048503	    0.044599	   -0.003904	   -0.053834	    0.090698	    0.036864	   -0.001031	    0.062849	    0.061818	   -0.071427	    0.032797	   -0.038630	   -0.061683	    0.002734	   -0.058949	    0.006202	   -0.000327	    0.005875	   -0.000128	   -0.006046	   -0.006174	   -0.011897	    0.020020	    0.008123	   -0.081434	    0.025876	   -0.055558	   -0.050471	    0.055046	    0.004576	   -0.056835	    0.024528	   -0.032306	   -0.040224	    0.031676	   -0.008548	    0.006866	   -0.010020	   -0.003154	    0.002805	    0.000983	    0.003788	    0.000582	    0.003855	    0.004437	   -0.014705	    0.019915	    0.005210	   -0.051257	    0.065219	    0.013962	   -0.032151	    0.075231	    0.043080	   -0.035258	    0.039151	    0.003894	    0.008407	    0.015045	    0.023452	    0.003039	   -0.009155	   -0.006116
     5.850	0	0	    0	    0.005756	    0.025079	    0.030834	   -0.048053	    0.045794	   -0.002259	   -0.052308	    0.090376	    0.038068	   -0.001092	    0.062709	    0.061617	   -0.069367	    0.035301	   -0.034065	   -0.059857	    0.003704	   -0.056153	    0.002955	    0.002174	    0.005129	    0.000330	   -0.007632	   -0.007302	   -0.012444	    0.019927	    0.007483	   -0.079144	    0.025785	   -0.053358	   -0.050079	    0.056378	    0.006299	   -0.054814	    0.026148	   -0.028665	   -0.038733	    0.032594	   -0.006138	    0.006348	   -0.010927	   -0.004579	    0.000614	    0.003312	    0.003925	   -0.000252	    0.002265	    0.002013	   -0.014964	    0.022161	    0.007196	   -0.052771	    0.065104	    0.012333	   -0.034310	    0.075136	    0.040827	   -0.035800	    0.040616	    0.004816	    0.007362	    0.016040	    0.023402	    0.000462	   -0.006441	   -0.005979
     5.925	0	0	    0	    0.006855	    0.022425	    0.029280	   -0.046989	    0.044594	   -0.002395	   -0.051697	    0.090531	    0.038834	    0.000958	    0.060623	    0.061581	   -0.068198	    0.035503	   -0.032694	   -0.058288	    0.003918	   -0.054370	   -0.000612	    0.003505	    0.002892	   -0.000185	   -0.009025	   -0.009210	   -0.012352	    0.019628	    0.007275	   -0.077663	    0.025961	   -0.051702	   -0.048249	    0.055788	    0.007539	   -0.054766	    0.026491	   -0.028275	   -0.037378	    0.031250	   -0.006129	    0.004600	   -0.008349	   -0.003749	    0.002057	    0.001073	    0.003130	    0.000040	    0.001453	    0.001494	   -0.016035	    0.021406	    0.005371	   -0.051292	    0.063873	    0.012581	   -0.033857	    0.074694	    0.040837	   -0.034637	    0.038099	    0.003462	    0.008911	    0.012997	    0.021908	    0.001559	   -0.006751	   -0.005192
     6.000	0	0	    0	    0.006381	    0.021355	    0.027736	   -0.046138	    0.043933	   -0.002206	   -0.051203	    0.090488	    0.039286	   -0.000650	    0.061500	    0.060850	   -0.067374	    0.037502	   -0.029872	   -0.056798	    0.003822	   -0.052976	    0.003663	   -0.002449	    0.001214	    0.000016	   -0.008070	   -0.008054	   -0.011467	    0.019328	    0.007860	   -0.076764	    0.025517	   -0.051247	   -0.048042	    0.056450	    0.008409	   -0.053828	    0.027457	   -0.026371	   -0.037086	    0.032578	   -0.004509	    0.006563	   -0.013371	   -0.006809	    0.000977	    0.001387	    0.002365	   -0.001501	    0.001583	    0.000082	   -0.015770	    0.021392	    0.005622	   -0.053833	    0.064713	    0.010880	   -0.035850	    0.074868	    0.039018	   -0.035065	    0.039317	    0.004252	    0.007928	    0.013988	    0.021916	   -0.000087	   -0.005974	   -0.006062
     6.075	0	0	    0	    0.004383	    0.022033	    0.026416	   -0.048594	    0.044600	   -0.003994	   -0.052082	    0.090172	    0.038090	   -0.001165	    0.060781	    0.059616	   -0.065482	    0.037754	   -0.027729	   -0.058041	    0.005790	   -0.052250	   -0.005118	    0.006348	    0.001230	   -0.001042	   -0.006563	   -0.007605	   -0.012269	    0.018901	    0.006632	   -0.080404	    0.026965	   -0.053439	   -0.050425	    0.056683	    0.006258	   -0.053349	    0.027555	   -0.025793	   -0.038669	    0.033138	   -0.005531	    0.002547	   -0.011646	   -0.009099	   -0.001337	    0.003542	    0.002206	   -0.001828	   -0.000224	   -0.002052	   -0.018207	    0.020327	    0.002120	   -0.058812	    0.064354	    0.005542	   -0.041138	    0.074080	    0.032941	   -0.038580	    0.037848	   -0.000733	    0.004886	    0.013505	    0.018390	   -0.002104	   -0.004607	   -0.006711
     6.150	0	0	    0	    0.003917	    0.020008	    0.023926	   -0.049717	    0.042903	   -0.006815	   -0.052576	    0.088770	    0.036194	   -0.001727	    0.059408	    0.057680	   -0.065169	    0.037833	   -0.027336	   -0.057141	    0.004490	   -0.052651	   -0.004906	    0.000586	   -0.004320	   -0.002792	   -0.005800	   -0.008592	   -0.014061	    0.018910	    0.004849	   -0.081646	    0.025050	   -0.056595	   -0.052082	    0.056451	    0.004369	   -0.055066	    0.026807	   -0.028259	   -0.040891	    0.031905	   -0.008987	   -0.000099	   -0.012788	   -0.012888	   -0.001394	    0.001900	    0.000506	   -0.002808	   -0.000472	   -0.003280	   -0.021926	    0.018797	   -0.003129	   -0.062890	    0.062090	   -0.000800	   -0.046358	    0.072363	    0.026005	   -0.043946	    0.036952	   -0.006994	    0.003502	    0.010046	    0.013548	   -0.000988	   -0.006555	   -0.007543
     6.225	0	0	    0	    0.001188	    0.020448	    0.021636	   -0.051540	    0.042429	   -0.009110	   -0.052722	    0.087984	    0.035262	   -0.002573	    0.058901	    0.056328	   -0.064617	    0.037466	   -0.027151	   -0.057591	    0.004502	   -0.053089	    0.000070	   -0.005031	   -0.004961	   -0.003028	   -0.005877	   -0.008905	   -0.015012	    0.017469	    0.002457	   -0.084330	    0.024499	   -0.059832	   -0.054424	    0.055573	    0.001149	   -0.056910	    0.026755	   -0.030155	   -0.043348	    0.031343	   -0.012005	   -0.003121	   -0.010994	   -0.014115	   -0.002598	    0.002362	   -0.000236	   -0.002398	   -0.001179	   -0.003577	   -0.024962	    0.017135	   -0.007827	   -0.068093	    0.061443	   -0.006650	   -0.050586	    0.071019	    0.020433	   -0.047427	    0.034645	   -0.012782	    0.001137	    0.009270	    0.010408	   -0.001348	   -0.006787	   -0.008135
     6.300	0	0	    0	   -0.000707	    0.019558	    0.018851	   -0.054050	    0.042374	   -0.011675	   -0.054505	    0.087698	    0.033193	   -0.004112	    0.058420	    0.054308	   -0.065015	    0.038471	   -0.026544	   -0.059077	    0.005813	   -0.053265	   -0.006831	    0.000846	   -0.005985	   -0.004243	   -0.006045	   -0.010288	   -0.017522	    0.018057	    0.000535	   -0.087570	    0.024997	   -0.062573	   -0.056755	    0.055664	   -0.001090	   -0.058670	    0.026672	   -0.031998	   -0.046633	    0.031309	   -0.015324	   -0.005157	   -0.012680	   -0.017837	   -0.003784	    0.004700	    0.000917	   -0.003071	    0.000116	   -0.002955	   -0.029485	    0.016892	   -0.012593	   -0.074487	    0.060844	   -0.013643	   -0.057180	    0.069904	    0.012724	   -0.054307	    0.035312	   -0.018995	   -0.004230	    0.009926	    0.005696	   -0.002256	   -0.006243	   -0.008499
     6.375	0	0	    0	   -0.002620	    0.019003	    0.016383	   -0.055550	    0.041689	   -0.013861	   -0.055588	    0.086839	    0.031251	   -0.005489	    0.057391	    0.051902	   -0.064499	    0.038090	   -0.026409	   -0.056661	    0.004074	   -0.052586	   -0.006221	   -0.002604	   -0.008825	   -0.005424	   -0.005622	   -0.011046	   -0.019073	    0.017315	   -0.001758	   -0.089258	    0.024255	   -0.065003	   -0.058532	    0.054984	   -0.003548	   -0.060626	    0.026026	   -0.034601	   -0.049826	    0.031746	   -0.018080	   -0.002975	   -0.017067	   -0.020042	   -0.004779	    0.003622	   -0.001158	   -0.003536	    0.000333	   -0.003203	   -0.033506	    0.017844	   -0.015662	   -0.079254	    0.058816	   -0.020438	   -0.064201	    0.068619	    0.004418	   -0.058908	    0.033448	   -0.025460	   -0.007959	    0.010335	    0.002376	   -0.002784	   -0.007402	   -0.010186
     6.450	0	0	    0	   -0.003192	    0.016709	    0.013517	   -0.056836	    0.041296	   -0.015540	   -0.057751	    0.086469	    0.028718	   -0.007477	    0.055951	    0.048474	   -0.063826	    0.038161	   -0.025665	   -0.058495	    0.005092	   -0.053403	   -0.012359	   -0.001858	   -0.014217	   -0.006677	   -0.005653	   -0.012330	   -0.022668	    0.018523	   -0.004145	   -0.094116	    0.025046	   -0.069070	   -0.061813	    0.054732	   -0.007081	   -0.063017	    0.026826	   -0.036192	   -0.053249	    0.030554	   -0.022695	   -0.012078	   -0.013064	   -0.025143	   -0.005850	    0.003106	   -0.002744	   -0.006544	    0.000203	   -0.006341	   -0.034126	    0.015122	   -0.019004	   -0.085809	    0.057401	   -0.028408	   -0.069196	    0.065413	   -0.003783	   -0.064676	    0.032395	   -0.032281	   -0.010058	    0.007836	   -0.002222	   -0.005488	   -0.006457	   -0.011946
     6.525	0	0	    0	   -0.002889	    0.018579	    0.015690	   -0.049487	    0.042462	   -0.007024	   -0.055529	    0.085989	    0.030460	   -0.006977	    0.053984	    0.047006	   -0.063457	    0.039165	   -0.024292	   -0.051732	    0.004652	   -0.047081	   -0.006536	    0.005047	   -0.001489	   -0.005325	   -0.010911	   -0.016236	   -0.019081	    0.015636	   -0.003445	   -0.081210	    0.022515	   -0.058695	   -0.054923	    0.052921	   -0.002002	   -0.062214	    0.024614	   -0.037601	   -0.044787	    0.027810	   -0.016978	    0.001017	   -0.012149	   -0.011132	    0.001614	    0.000305	    0.001919	   -0.007846	   -0.003967	   -0.011813	   -0.026552	    0.016309	   -0.010243	   -0.066763	    0.054219	   -0.012544	   -0.049712	    0.063328	    0.013615	   -0.055478	    0.027399	   -0.028079	   -0.001528	    0.004229	    0.002701	    0.002306	   -0.008614	   -0.006308
     6.600	0	0	    0	    0.003395	    0.018303	    0.021698	   -0.041603	    0.044564	    0.002962	   -0.048946	    0.085077	    0.036131	   -0.004613	    0.053525	    0.048913	   -0.059958	    0.040066	   -0.019892	   -0.047814	    0.006945	   -0.040869	    0.003983	   -0.002220	    0.001763	   -0.000681	   -0.013333	   -0.014014	   -0.013308	    0.017887	    0.004579	   -0.071026	    0.027402	   -0.043624	   -0.048854	    0.055010	    0.006155	   -0.053117	    0.025975	   -0.027143	   -0.032300	    0.033494	    0.001194	    0.005492	   -0.011380	   -0.005887	    0.000700	    0.002337	    0.003037	   -0.005533	   -0.004926	   -0.010459	   -0.013796	    0.020636	    0.006840	   -0.056096	    0.060376	    0.004281	   -0.038176	    0.069766	    0.031590	   -0.033293	    0.032219	   -0.001073	    0.008332	    0.009575	    0.017908	   -0.000282	   -0.005140	   -0.005423
     6.675	0	0	    0	    0.004487	    0.018809	    0.023296	   -0.038910	    0.044965	    0.006054	   -0.047419	    0.086126	    0.038707	   -0.002340	    0.053055	    0.050714	   -0.057641	    0.040937	   -0.016705	   -0.045694	    0.007358	   -0.038335	    0.003501	    0.000243	    0.003745	   -0.000727	   -0.012369	   -0.013097	   -0.010255	    0.017655	    0.007400	   -0.066308	    0.027935	   -0.038374	   -0.046547	    0.055670	    0.009124	   -0.049281	    0.027522	   -0.021759	   -0.028846	    0.035728	    0.006882	    0.007139	   -0.011712	   -0.004574	    0.003297	    0.000786	    0.004083	   -0.004714	   -0.005296	   -0.010010	   -0.013578	    0.023326	    0.009748	   -0.051485	    0.061738	    0.010253	   -0.033045	    0.071249	    0.038205	   -0.031154	    0.038294	    0.007139	    0.010732	    0.010393	    0.021125	    0.002466	   -0.005980	   -0.003515
     6.750	0	0	    0	    0.005506	    0.018769	    0.024275	   -0.038511	    0.044945	    0.006433	   -0.046152	    0.085987	    0.039835	   -0.001753	    0.053517	    0.051764	   -0.057009	    0.041997	   -0.015013	   -0.047195	    0.010109	   -0.037086	   -0.000516	    0.003674	    0.003158	   -0.000443	   -0.009907	   -0.010350	   -0.010757	    0.020443	    0.009686	   -0.066346	    0.028828	   -0.037518	   -0.046326	    0.055850	    0.009524	   -0.046798	    0.027577	   -0.019221	   -0.028527	    0.037444	    0.008917	    0.004590	   -0.010715	   -0.006124	    0.001496	    0.003068	    0.004564	   -0.004123	   -0.004242	   -0.008365	   -0.014044	    0.024828	    0.010784	   -0.051206	    0.061971	    0.010765	   -0.034117	    0.072465	    0.038347	   -0.031582	    0.041203	    0.009621	    0.009099	    0.012267	    0.021366	    0.001547	   -0.005553	   -0.004006
     6.825	0	0	    0	    0.005663	    0.019103	    0.024766	   -0.036361	    0.043388	    0.007027	   -0.044567	    0.085547	    0.040980	   -0.001368	    0.053385	    0.052017	   -0.054889	    0.041157	   -0.013733	   -0.044656	    0.009266	   -0.035390	    0.002205	    0.000611	    0.002816	    0.000709	   -0.008654	   -0.007945	   -0.008118	    0.017896	    0.009777	   -0.065464	    0.028991	   -0.036473	   -0.045099	    0.055809	    0.010709	   -0.046065	    0.028190	   -0.017875	   -0.026318	    0.036320	    0.010002	    0.005641	   -0.012850	   -0.007209	   -0.000497	    0.005011	    0.004515	   -0.003986	   -0.004336	   -0.008322	   -0.012246	    0.022134	    0.009888	   -0.050032	    0.060999	    0.010967	   -0.032658	    0.072493	    0.039835	   -0.027148	    0.037126	    0.009979	    0.010811	    0.009791	    0.020602	    0.000626	   -0.004995	   -0.004369
     6.900	0	0	    0	    0.005664	    0.019577	    0.025241	   -0.036781	    0.043883	    0.007101	   -0.043700	    0.085444	    0.041745	   -0.001442	    0.053976	    0.052534	   -0.054381	    0.042539	   -0.011843	   -0.043518	    0.009685	   -0.033834	   -0.002915	    0.004843	    0.001928	    0.000657	   -0.007544	   -0.006887	   -0.009379	    0.019716	    0.010337	   -0.063226	    0.028186	   -0.035040	   -0.044755	    0.056892	    0.012137	   -0.045930	    0.029161	   -0.016769	   -0.025388	    0.036956	    0.011568	    0.001951	   -0.009367	   -0.007416	    0.002667	    0.001458	    0.004125	   -0.003985	   -0.004034	   -0.008019	   -0.012396	    0.022338	    0.009941	   -0.052685	    0.061376	    0.008691	   -0.035467	    0.071003	    0.035536	   -0.029719	    0.039124	    0.009405	    0.009752	    0.010407	    0.020159	    0.000455	   -0.005625	   -0.005170
     6.975	0	0	    0	    0.003951	    0.019253	    0.023204	   -0.038478	    0.043823	    0.005345	   -0.044903	    0.085618	    0.040715	   -0.002442	    0.053253	    0.050812	   -0.053821	    0.042974	   -0.010846	   -0.044144	    0.010081	   -0.034063	   -0.005140	    0.003663	   -0.001477	   -0.000666	   -0.007416	   -0.008082	   -0.010596	    0.018161	    0.007565	   -0.066450	    0.028890	   -0.037560	   -0.046063	    0.055591	    0.009528	   -0.046660	    0.029485	   -0.017175	   -0.028001	    0.037285	    0.009284	    0.001865	   -0.011222	   -0.009357	    0.000429	    0.001179	    0.001608	   -0.004895	   -0.003976	   -0.008872	   -0.014453	    0.020787	    0.006335	   -0.057304	    0.060336	    0.003032	   -0.041066	    0.070435	    0.029368	   -0.034132	    0.038146	    0.004014	    0.006393	    0.010419	    0.016811	    0.002662	   -0.007440	   -0.004778
     7.050	0	0	    0	    0.003518	    0.017972	    0.021490	   -0.039094	    0.041631	    0.002537	   -0.046199	    0.084896	    0.038697	   -0.003034	    0.052235	    0.049201	   -0.053618	    0.042684	   -0.010934	   -0.043442	    0.009271	   -0.034171	   -0.001586	   -0.002074	   -0.003660	   -0.001075	   -0.007308	   -0.008383	   -0.013290	    0.019377	    0.006087	   -0.068061	    0.027029	   -0.041032	   -0.049133	    0.056645	    0.007512	   -0.048103	    0.028817	   -0.019286	   -0.031397	    0.037055	    0.005658	    0.001494	   -0.015900	   -0.014407	   -0.002938	    0.005524	    0.002586	   -0.005535	   -0.003851	   -0.009386	   -0.019368	    0.021572	    0.002205	   -0.062632	    0.059989	   -0.002643	   -0.046947	    0.069475	    0.022529	   -0.039039	    0.036628	   -0.002411	    0.002530	    0.009681	    0.012212	   -0.001552	   -0.005018	   -0.006570
     7.125	0	0	    0	    0.003259	    0.016943	    0.020202	   -0.042473	    0.042065	   -0.000408	   -0.046357	    0.083494	    0.037137	   -0.003163	    0.051551	    0.048388	   -0.053361	    0.042115	   -0.011245	   -0.044010	    0.008903	   -0.035107	   -0.003968	   -0.001831	   -0.005799	   -0.000936	   -0.008364	   -0.009301	   -0.014257	    0.017440	    0.003184	   -0.071687	    0.026742	   -0.044945	   -0.050262	    0.055401	    0.005139	   -0.049266	    0.027556	   -0.021710	   -0.033748	    0.035153	    0.001405	   -0.000949	   -0.014178	   -0.015127	   -0.002287	    0.002875	    0.000588	   -0.006611	   -0.003881	   -0.010492	   -0.023417	    0.020312	   -0.003106	   -0.067241	    0.057970	   -0.009272	   -0.051432	    0.067686	    0.016254	   -0.044212	    0.035144	   -0.009068	   -0.001367	    0.009947	    0.008580	   -0.000451	   -0.006140	   -0.006591
     7.200	0	0	    0	    0.001887	    0.016217	    0.018103	   -0.044473	    0.041303	   -0.003170	   -0.047943	    0.083493	    0.035550	   -0.003615	    0.050293	    0.046678	   -0.053217	    0.041868	   -0.011349	   -0.045274	    0.009789	   -0.035484	   -0.003979	   -0.002741	   -0.006721	   -0.002792	   -0.007094	   -0.009886	   -0.016217	    0.017763	    0.001546	   -0.074125	    0.026043	   -0.048083	   -0.052602	    0.055209	    0.002607	   -0.050809	    0.026978	   -0.023831	   -0.036591	    0.034928	   -0.001663	   -0.002630	   -0.012897	   -0.015526	   -0.002807	    0.003073	    0.000266	   -0.006970	   -0.004547	   -0.011517	   -0.026859	    0.019972	   -0.006886	   -0.072579	    0.056848	   -0.015731	   -0.057096	    0.065689	    0.008593	   -0.048828	    0.033348	   -0.015480	   -0.003099	    0.007741	    0.004642	   -0.002835	   -0.004191	   -0.007026
     7.275	0	0	    0	   -0.000654	    0.017153	    0.016499	   -0.047167	    0.041092	   -0.006076	   -0.050026	    0.083302	    0.033276	   -0.007279	    0.051146	    0.043867	   -0.054726	    0.041964	   -0.012763	   -0.045333	    0.008480	   -0.036853	   -0.007338	   -0.001547	   -0.008884	   -0.003928	   -0.006688	   -0.010616	   -0.018437	    0.016964	   -0.001473	   -0.078190	    0.026255	   -0.051935	   -0.056146	    0.055485	   -0.000661	   -0.054253	    0.027338	   -0.026915	   -0.040579	    0.034546	   -0.006032	   -0.005624	   -0.013906	   -0.019530	   -0.001759	    0.000894	   -0.000865	   -0.008074	   -0.004049	   -0.012123	   -0.029517	    0.017529	   -0.011988	   -0.078266	    0.055608	   -0.022658	   -0.062722	    0.064351	    0.001630	   -0.053996	    0.032443	   -0.021553	   -0.006749	    0.006919	    0.000171	   -0.002437	   -0.006538	   -0.008976
     7.350	0	0	    0	   -0.002380	    0.015676	    0.013296	   -0.050000	    0.040812	   -0.009187	   -0.051732	    0.082079	    0.030347	   -0.006478	    0.047973	    0.041496	   -0.055044	    0.041471	   -0.013573	   -0.048084	    0.009218	   -0.038866	   -0.014445	   -0.000774	   -0.015219	   -0.004174	   -0.008243	   -0.012417	   -0.019943	    0.015919	   -0.004023	   -0.083806	    0.025677	   -0.058129	   -0.058912	    0.054884	   -0.004028	   -0.056033	    0.025416	   -0.030617	   -0.044158	    0.033027	   -0.011130	   -0.010612	   -0.013959	   -0.024571	   -0.003111	   -0.000443	   -0.003554	   -0.009085	   -0.004022	   -0.013108	   -0.035323	    0.017097	   -0.018226	   -0.084300	    0.054017	   -0.030283	   -0.069348	    0.063373	   -0.005975	   -0.059751	    0.031197	   -0.028554	   -0.010319	    0.006140	   -0.004178	   -0.006396	   -0.005663	   -0.012059
     7.425	0	0	    0	   -0.003601	    0.014674	    0.011073	   -0.051013	    0.039844	   -0.011168	   -0.053710	    0.081708	    0.027998	   -0.008498	    0.047686	    0.039188	   -0.055950	    0.041178	   -0.014772	   -0.046251	    0.007056	   -0.039194	   -0.010477	   -0.003015	   -0.013492	   -0.005728	   -0.007970	   -0.013698	   -0.022204	    0.016383	   -0.005821	   -0.083857	    0.023022	   -0.060835	   -0.059666	    0.053227	   -0.006439	   -0.059024	    0.025451	   -0.033573	   -0.048247	    0.032959	   -0.015288	   -0.004941	   -0.019648	   -0.024590	   -0.002453	    0.000340	   -0.002113	   -0.010014	   -0.004200	   -0.014215	   -0.038465	    0.016218	   -0.022247	   -0.083338	    0.050750	   -0.032588	   -0.069720	    0.060518	   -0.009202	   -0.066690	    0.030707	   -0.035983	   -0.012557	    0.004955	   -0.007601	   -0.000414	   -0.009519	   -0.009933
     7.500	0	0	    0	   -0.000014	    0.013431	    0.013418	   -0.039501	    0.039529	    0.000029	   -0.047643	    0.081241	    0.033598	   -0.007736	    0.046239	    0.038503	   -0.053611	    0.040452	   -0.013158	   -0.040253	    0.009361	   -0.030892	    0.000781	   -0.003134	   -0.002352	   -0.001770	   -0.008805	   -0.010574	   -0.013500	    0.015544	    0.002044	   -0.067564	    0.025582	   -0.041983	   -0.050462	    0.053986	    0.003524	   -0.053640	    0.023454	   -0.030186	   -0.030494	    0.031682	    0.001188	    0.005014	   -0.015254	   -0.010240	    0.000735	    0.002103	    0.002838	   -0.005058	   -0.004826	   -0.009884	   -0.021943	    0.013652	   -0.008291	   -0.061674	    0.053935	   -0.007739	   -0.046338	    0.062959	    0.016621	   -0.042452	    0.026376	   -0.016075	    0.001194	    0.004981	    0.006175	    0.000262	   -0.004857	   -0.004594
     7.575	0	0	    0	    0.002209	    0.016217	    0.018426	   -0.035269	    0.042456	    0.007187	   -0.044239	    0.082932	    0.038692	   -0.006339	    0.047451	    0.041112	   -0.051044	    0.041777	   -0.009266	   -0.036317	    0.011109	   -0.025208	   -0.001753	    0.001531	   -0.000222	    0.000481	   -0.006523	   -0.006042	   -0.010434	    0.017665	    0.007231	   -0.060072	    0.029679	   -0.030393	   -0.046261	    0.055776	    0.009515	   -0.046117	    0.025484	   -0.020634	   -0.023515	    0.037699	    0.014184	    0.006550	   -0.013842	   -0.007293	    0.003260	   -0.000537	    0.002723	   -0.003824	   -0.003425	   -0.007249	   -0.016087	    0.017932	    0.001845	   -0.056186	    0.057349	    0.001163	   -0.040436	    0.066162	    0.025726	   -0.032186	    0.035038	    0.002852	    0.007778	    0.007749	    0.015528	    0.002840	   -0.006822	   -0.003981
     7.650	0	0	    0	    0.003467	    0.016503	    0.019970	   -0.031850	    0.042060	    0.010210	   -0.041347	    0.082327	    0.040980	   -0.005240	    0.046826	    0.041586	   -0.047770	    0.042145	   -0.005625	   -0.033901	    0.012369	   -0.021532	    0.000634	   -0.001743	   -0.001108	    0.001944	   -0.006103	   -0.004159	   -0.009640	    0.018924	    0.009284	   -0.055646	    0.030654	   -0.024992	   -0.044187	    0.056526	    0.012339	   -0.042828	    0.026280	   -0.016549	   -0.019676	    0.039316	    0.019641	    0.007894	   -0.013114	   -0.005219	    0.001324	    0.001987	    0.003310	   -0.002863	   -0.003413	   -0.006276	   -0.015330	    0.022218	    0.006888	   -0.053348	    0.058298	    0.004950	   -0.039911	    0.067379	    0.027468	   -0.029023	    0.035781	    0.006758	    0.008755	    0.009921	    0.018676	    0.004120	   -0.006010	   -0.001890
     7.725	0	0	    0	    0.002883	    0.016361	    0.019245	   -0.032594	    0.042735	    0.010141	   -0.040311	    0.081379	    0.041068	   -0.004122	    0.045064	    0.040942	   -0.046793	    0.042445	   -0.004348	   -0.032374	    0.012343	   -0.020031	   -0.004864	    0.000211	   -0.004653	    0.001222	   -0.005778	   -0.004557	   -0.008983	    0.017283	    0.008300	   -0.054701	    0.030461	   -0.024240	   -0.044019	    0.056293	    0.012274	   -0.042621	    0.027918	   -0.014703	   -0.020360	    0.040189	    0.019829	    0.004605	   -0.011049	   -0.006444	    0.000448	    0.001909	    0.002357	   -0.002372	   -0.003802	   -0.006174	   -0.015734	    0.021277	    0.005543	   -0.054201	    0.057878	    0.003677	   -0.039860	    0.066842	    0.026981	   -0.028783	    0.036066	    0.007283	    0.008339	    0.009552	    0.017891	   -0.000135	   -0.002864	   -0.002999
     7.800	0	0	    0	    0.004355	    0.015791	    0.020145	   -0.030771	    0.042355	    0.011584	   -0.039313	    0.081164	    0.041851	   -0.003709	    0.044126	    0.040417	   -0.044893	    0.042520	   -0.002373	   -0.031336	    0.013802	   -0.017533	   -0.008019	    0.007194	   -0.000826	    0.001957	   -0.004981	   -0.003024	   -0.007876	    0.017548	    0.009672	   -0.055023	    0.031981	   -0.023041	   -0.042692	    0.056094	    0.013402	   -0.040214	    0.027063	   -0.013151	   -0.018458	    0.039961	    0.021503	    0.006091	   -0.013182	   -0.007091	    0.002072	    0.001897	    0.003968	   -0.002451	   -0.003091	   -0.005542	   -0.014798	    0.021343	    0.006545	   -0.052982	    0.057674	    0.004692	   -0.038405	    0.066524	    0.028120	   -0.028507	    0.036678	    0.008171	    0.007130	    0.009865	    0.016995	    0.002648	   -0.005740	   -0.003092
     7.875	0	0	    0	    0.005289	    0.014257	    0.019545	   -0.031605	    0.042299	    0.010694	   -0.039125	    0.080880	    0.041754	   -0.003375	    0.043078	    0.039703	   -0.043289	    0.042070	   -0.001219	   -0.028912	    0.012940	   -0.015972	   -0.006381	    0.001792	   -0.004589	    0.002117	   -0.005229	   -0.003112	   -0.009058	    0.017789	    0.008731	   -0.054904	    0.032169	   -0.022735	   -0.043834	    0.056798	    0.012963	   -0.039985	    0.027426	   -0.012559	   -0.019122	    0.040957	    0.021835	    0.004933	   -0.013368	   -0.008435	    0.001730	    0.000976	    0.002706	   -0.002661	   -0.002651	   -0.005312	   -0.015140	    0.020477	    0.005337	   -0.055760	    0.055857	    0.000098	   -0.043396	    0.065380	    0.021984	   -0.029724	    0.035535	    0.005811	    0.006658	    0.009498	    0.016156	    0.002102	   -0.005965	   -0.003863
     7.950	0	0	    0	    0.003311	    0.014410	    0.017722	   -0.032827	    0.041204	    0.008377	   -0.039432	    0.079598	    0.040166	   -0.003110	    0.041704	    0.038594	   -0.042945	    0.042549	   -0.000396	   -0.030044	    0.013306	   -0.016738	   -0.002349	   -0.004415	   -0.006764	    0.001097	   -0.005196	   -0.004099	   -0.010581	    0.017415	    0.006834	   -0.057427	    0.029850	   -0.027576	   -0.045362	    0.055520	    0.010158	   -0.040038	    0.026420	   -0.013618	   -0.020741	    0.039451	    0.018709	    0.003104	   -0.015903	   -0.012800	    0.000854	    0.001128	    0.001982	   -0.002808	   -0.002216	   -0.005025	   -0.020942	    0.020844	   -0.000098	   -0.060887	    0.055293	   -0.005595	   -0.048174	    0.064691	    0.016517	   -0.034428	    0.034663	    0.000234	    0.003443	    0.008292	    0.011734	    0.000822	   -0.006019	   -0.005197
     8.025	0	0	    0	    0.002459	    0.013972	    0.016432	   -0.033970	    0.040136	    0.006166	   -0.039553	    0.078337	    0.038784	   -0.004344	    0.041950	    0.037605	   -0.042329	    0.041960	   -0.000368	   -0.028310	    0.012326	   -0.015983	   -0.003547	   -0.002613	   -0.006160	    0.000330	   -0.005146	   -0.004817	   -0.012066	    0.017061	    0.004995	   -0.058137	    0.029464	   -0.028673	   -0.046950	    0.055410	    0.008460	   -0.042293	    0.026684	   -0.015608	   -0.024049	    0.039678	    0.015629	    0.001869	   -0.015270	   -0.013401	   -0.000714	    0.001956	    0.001242	   -0.003370	   -0.002059	   -0.005429	   -0.020521	    0.018389	   -0.002131	   -0.065355	    0.054434	   -0.010922	   -0.053635	    0.063336	    0.009700	   -0.040624	    0.035039	   -0.005584	    0.000775	    0.007060	    0.007836	   -0.001379	   -0.004643	   -0.006022
     8.100	0	0	    0	    0.000740	    0.013463	    0.014204	   -0.036484	    0.039582	    0.003098	   -0.040737	    0.077326	    0.036589	   -0.005517	    0.040815	    0.035298	   -0.042363	    0.042951	    0.000588	   -0.028483	    0.011500	   -0.016983	   -0.002757	   -0.006971	   -0.009728	   -0.001248	   -0.004746	   -0.005994	   -0.014084	    0.016797	    0.002714	   -0.061942	    0.028923	   -0.033018	   -0.049307	    0.054936	    0.005629	   -0.043722	    0.026587	   -0.017135	   -0.026784	    0.038507	    0.011723	   -0.000214	   -0.017388	   -0.017602	   -0.003883	    0.003703	   -0.000180	   -0.003838	   -0.001949	   -0.005787	   -0.026120	    0.018957	   -0.007163	   -0.070438	    0.053188	   -0.017251	   -0.058573	    0.061065	    0.002492	   -0.046145	    0.033636	   -0.012509	   -0.002397	    0.005788	    0.003392	   -0.001917	   -0.005118	   -0.007034
     8.175	0	0	    0	   -0.002377	    0.014278	    0.011901	   -0.038491	    0.038971	    0.000480	   -0.042846	    0.077278	    0.034432	   -0.007899	    0.041153	    0.033254	   -0.041896	    0.043092	    0.001195	   -0.029995	    0.012130	   -0.017866	   -0.006701	   -0.005335	   -0.012036	   -0.002610	   -0.004241	   -0.006851	   -0.016193	    0.016440	    0.000247	   -0.065045	    0.028488	   -0.036557	   -0.052191	    0.054738	    0.002548	   -0.045679	    0.025963	   -0.019716	   -0.030118	    0.038372	    0.008254	   -0.001201	   -0.018220	   -0.019421	   -0.003573	    0.002841	   -0.000732	   -0.003903	   -0.001753	   -0.005656	   -0.029409	    0.018499	   -0.010910	   -0.075052	    0.051704	   -0.023347	   -0.064350	    0.060457	   -0.003893	   -0.049885	    0.031281	   -0.018604	   -0.005748	    0.005173	   -0.000575	   -0.004503	   -0.001837	   -0.006339
     8.250	0	0	    0	   -0.003840	    0.013881	    0.010041	   -0.041327	    0.038732	   -0.002595	   -0.043664	    0.076133	    0.032470	   -0.008626	    0.040025	    0.031398	   -0.043035	    0.043262	    0.000227	   -0.030345	    0.011595	   -0.018750	   -0.004607	   -0.007333	   -0.011940	   -0.002788	   -0.005307	   -0.008094	   -0.016924	    0.015171	   -0.001753	   -0.068217	    0.027236	   -0.040982	   -0.054043	    0.053468	   -0.000575	   -0.048350	    0.025501	   -0.022849	   -0.033404	    0.037314	    0.003910	   -0.005387	   -0.017191	   -0.022578	   -0.001258	   -0.000030	   -0.001288	   -0.004892	   -0.001370	   -0.006262	   -0.035160	    0.018394	   -0.016766	   -0.081201	    0.051128	   -0.030073	   -0.068975	    0.058087	   -0.010888	   -0.055143	    0.030073	   -0.025069	   -0.008877	    0.004624	   -0.004253	   -0.001336	   -0.007543	   -0.008879
     8.325	0	0	    0	   -0.006423	    0.013247	    0.006824	   -0.044271	    0.038633	   -0.005638	   -0.045525	    0.076049	    0.030524	   -0.009125	    0.038478	    0.029353	   -0.043323	    0.042836	   -0.000487	   -0.032234	    0.011593	   -0.020642	   -0.013165	   -0.002393	   -0.015557	   -0.004959	   -0.004429	   -0.009388	   -0.019911	    0.015397	   -0.004515	   -0.073581	    0.028353	   -0.045228	   -0.057773	    0.054179	   -0.003594	   -0.049938	    0.024866	   -0.025071	   -0.038125	    0.037182	   -0.000943	   -0.007286	   -0.017690	   -0.024976	   -0.005409	    0.002096	   -0.003312	   -0.005323	   -0.001447	   -0.006770	   -0.036441	    0.015992	   -0.020450	   -0.087875	    0.050273	   -0.037602	   -0.075460	    0.056670	   -0.018790	   -0.061355	    0.029796	   -0.031559	   -0.012706	    0.004930	   -0.007776	   -0.003335	   -0.006684	   -0.010019
     8.400	0	0	    0	   -0.006879	    0.011037	    0.004158	   -0.045271	    0.037493	   -0.007778	   -0.047204	    0.074704	    0.027500	   -0.011671	    0.038718	    0.027047	   -0.044414	    0.042668	   -0.001746	   -0.031941	    0.011432	   -0.020510	   -0.009303	   -0.005692	   -0.014995	   -0.004763	   -0.007204	   -0.011967	   -0.021135	    0.014450	   -0.006685	   -0.073563	    0.025262	   -0.048302	   -0.057498	    0.051304	   -0.006194	   -0.053101	    0.024366	   -0.028735	   -0.040582	    0.034341	   -0.006241	   -0.005653	   -0.019970	   -0.025623	   -0.002286	   -0.000043	   -0.002329	   -0.005927	   -0.001377	   -0.007304	   -0.038502	    0.012256	   -0.026245	   -0.083607	    0.045445	   -0.038162	   -0.073114	    0.052843	   -0.020270	   -0.065879	    0.026401	   -0.039477	   -0.013734	    0.001540	   -0.012194	   -0.000055	   -0.009231	   -0.009285
     8.475	0	0	    0	   -0.003025	    0.010260	    0.007236	   -0.034166	    0.038329	    0.004164	   -0.041436	    0.074632	    0.033196	   -0.010786	    0.037332	    0.026545	   -0.042510	    0.041807	   -0.000703	   -0.025772	    0.013126	   -0.012646	   -0.007147	    0.005498	   -0.001649	   -0.001750	   -0.006955	   -0.008705	   -0.012765	    0.014686	    0.001921	   -0.057340	    0.028036	   -0.029304	   -0.049191	    0.052426	    0.003236	   -0.047313	    0.022158	   -0.025155	   -0.024171	    0.035633	    0.011462	    0.002468	   -0.015200	   -0.012732	   -0.002855	    0.004870	    0.002016	   -0.000606	   -0.001979	   -0.002584	   -0.025212	    0.014157	   -0.011055	   -0.064425	    0.050356	   -0.014070	   -0.053851	    0.058425	    0.004573	   -0.042751	    0.025675	   -0.017077	   -0.000228	    0.003080	    0.002852	    0.000084	   -0.005287	   -0.005203
     8.550	0	0	    0	   -0.001631	    0.012872	    0.011241	   -0.030158	    0.039770	    0.009612	   -0.039089	    0.075845	    0.036756	   -0.009986	    0.038280	    0.028295	   -0.039818	    0.043037	    0.003219	   -0.021879	    0.014208	   -0.007671	    0.000702	   -0.004578	   -0.003876	   -0.000134	   -0.005108	   -0.005242	   -0.009936	    0.016307	    0.006371	   -0.051894	    0.030984	   -0.020910	   -0.046822	    0.054454	    0.007632	   -0.041617	    0.025440	   -0.016177	   -0.018555	    0.040602	    0.022047	    0.004373	   -0.014545	   -0.010172	    0.000988	    0.000974	    0.001962	    0.000279	    0.000057	    0.000336	   -0.021640	    0.018975	   -0.002665	   -0.060348	    0.053432	   -0.006917	   -0.047315	    0.059422	    0.012107	   -0.035583	    0.033851	   -0.001732	    0.004092	    0.007129	    0.011221	    0.001186	   -0.005976	   -0.004790
     8.625	0	0	    0	    0.000439	    0.011639	    0.012078	   -0.028567	    0.040240	    0.011674	   -0.037429	    0.075804	    0.038375	   -0.008015	    0.036939	    0.028924	   -0.037671	    0.043007	    0.005337	   -0.018564	    0.013428	   -0.005136	    0.000552	   -0.005282	   -0.004730	    0.000975	   -0.005421	   -0.004446	   -0.009809	    0.017057	    0.007248	   -0.049871	    0.032155	   -0.017716	   -0.045028	    0.054143	    0.009115	   -0.038198	    0.024962	   -0.013235	   -0.017171	    0.042376	    0.025205	    0.005390	   -0.015415	   -0.010025	   -0.001818	    0.003415	    0.001597	    0.000786	    0.000522	    0.001308	   -0.019217	    0.018322	   -0.000895	   -0.060902	    0.054084	   -0.006818	   -0.047707	    0.060394	    0.012686	   -0.033613	    0.035271	    0.001658	    0.004214	    0.008876	    0.013090	    0.000638	   -0.005822	   -0.005184
     8.700	0	0	    0	    0.001333	    0.010915	    0.012248	   -0.028756	    0.040208	    0.011452	   -0.036772	    0.075100	    0.038328	   -0.006797	    0.036558	    0.029760	   -0.036966	    0.043591	    0.006625	   -0.019551	    0.015742	   -0.003810	   -0.005009	   -0.000497	   -0.005506	    0.001020	   -0.005016	   -0.003996	   -0.009601	    0.016509	    0.006908	   -0.048659	    0.031748	   -0.016911	   -0.044904	    0.053893	    0.008989	   -0.038138	    0.025676	   -0.012462	   -0.016936	    0.040577	    0.023641	    0.004482	   -0.016606	   -0.012124	   -0.001423	    0.003047	    0.001624	    0.001064	    0.000265	    0.001328	   -0.019607	    0.019027	   -0.000580	   -0.059270	    0.052938	   -0.006332	   -0.048037	    0.059517	    0.011480	   -0.034615	    0.032615	   -0.002000	    0.005035	    0.005794	    0.010829	   -0.003566	   -0.003652	   -0.007218
     8.775	0	0	    0	    0.000849	    0.011641	    0.012490	   -0.027720	    0.040400	    0.012680	   -0.036396	    0.075688	    0.039293	   -0.007035	    0.036923	    0.029888	   -0.035925	    0.044239	    0.008314	   -0.019586	    0.016383	   -0.003203	   -0.005365	    0.002670	   -0.002696	    0.001324	   -0.005442	   -0.004119	   -0.009036	    0.016900	    0.007864	   -0.050079	    0.032263	   -0.017816	   -0.047409	    0.054080	    0.006670	   -0.037878	    0.026726	   -0.011152	   -0.017466	    0.042690	    0.025224	    0.005155	   -0.015321	   -0.010166	   -0.000030	    0.001463	    0.001433	    0.001341	    0.000781	    0.002121	   -0.019478	    0.020544	    0.001066	   -0.058178	    0.053283	   -0.004895	   -0.046307	    0.060792	    0.014485	   -0.032903	    0.033383	    0.000480	    0.004647	    0.007688	    0.012335	    0.002106	   -0.006592	   -0.004486
     8.850	0	0	    0	    0.000726	    0.011511	    0.012238	   -0.029917	    0.040590	    0.010673	   -0.036887	    0.074851	    0.037964	   -0.007044	    0.036866	    0.029822	   -0.037803	    0.044682	    0.006880	   -0.020698	    0.016025	   -0.004673	   -0.004542	   -0.001655	   -0.006196	   -0.000348	   -0.004922	   -0.005271	   -0.009471	    0.016858	    0.007387	   -0.053544	    0.030757	   -0.022787	   -0.048092	    0.052817	    0.004725	   -0.039877	    0.025700	   -0.014176	   -0.019514	    0.040582	    0.021068	   -0.001586	   -0.014529	   -0.016116	   -0.002643	    0.004155	    0.001512	    0.000998	    0.001077	    0.002075	   -0.021125	    0.021158	    0.000033	   -0.062768	    0.053981	   -0.008788	   -0.050881	    0.061320	    0.010439	   -0.036762	    0.034362	   -0.002400	    0.003111	    0.006795	    0.009907	   -0.001545	   -0.005644	   -0.007189
     8.925	0	0	    0	   -0.000356	    0.010797	    0.010441	   -0.031948	    0.040176	    0.008228	   -0.038969	    0.075885	    0.036916	   -0.008140	    0.037503	    0.029364	   -0.037078	    0.043799	    0.006721	   -0.020320	    0.014737	   -0.005583	   -0.006493	   -0.001124	   -0.007617	   -0.000848	   -0.006257	   -0.007105	   -0.011563	    0.016437	    0.004873	   -0.055421	    0.029778	   -0.025643	   -0.049484	    0.053146	    0.003662	   -0.040864	    0.025555	   -0.015310	   -0.022756	    0.040779	    0.018023	   -0.003097	   -0.013182	   -0.016279	   -0.001545	    0.001324	   -0.000221	    0.000078	    0.001171	    0.001249	   -0.025463	    0.021163	   -0.004299	   -0.067270	    0.051670	   -0.015600	   -0.056149	    0.059373	    0.003224	   -0.041909	    0.033584	   -0.008325	   -0.001311	    0.007686	    0.006375	   -0.001181	   -0.005847	   -0.007029
     9.000	0	0	    0	   -0.002005	    0.010009	    0.008004	   -0.034254	    0.039066	    0.004813	   -0.040153	    0.074650	    0.034497	   -0.008448	    0.036470	    0.028022	   -0.037485	    0.044473	    0.006988	   -0.022189	    0.015265	   -0.006924	   -0.010034	   -0.002084	   -0.012119	   -0.002404	   -0.006081	   -0.008485	   -0.013326	    0.015639	    0.002313	   -0.059146	    0.029896	   -0.029250	   -0.051292	    0.052866	    0.001574	   -0.042746	    0.025961	   -0.016784	   -0.026259	    0.040532	    0.014273	   -0.003415	   -0.015379	   -0.018795	   -0.001829	    0.001130	   -0.000698	   -0.000730	    0.000912	    0.000182	   -0.026096	    0.017000	   -0.009096	   -0.072869	    0.050306	   -0.022563	   -0.061100	    0.057359	   -0.003741	   -0.045860	    0.029973	   -0.015887	   -0.004773	    0.007282	    0.002510	    0.000663	   -0.008273	   -0.007609
     9.075	0	0	    0	   -0.003838	    0.009746	    0.005908	   -0.036315	    0.038689	    0.002373	   -0.041391	    0.074614	    0.033223	   -0.009184	    0.035305	    0.026121	   -0.037464	    0.043420	    0.005956	   -0.022257	    0.013608	   -0.008650	   -0.005809	   -0.006447	   -0.012255	   -0.003229	   -0.006286	   -0.009515	   -0.015179	    0.015666	    0.000487	   -0.062123	    0.028871	   -0.033253	   -0.053178	    0.052265	   -0.000913	   -0.044249	    0.024879	   -0.019370	   -0.029829	    0.039990	    0.010162	   -0.003908	   -0.017624	   -0.021533	   -0.004523	    0.002497	   -0.002026	   -0.001378	    0.000780	   -0.000599	   -0.031993	    0.020108	   -0.011885	   -0.078430	    0.049896	   -0.028534	   -0.067797	    0.057335	   -0.010461	   -0.052155	    0.030490	   -0.021665	   -0.007457	    0.006143	   -0.001313	   -0.002620	   -0.006400	   -0.009020
     9.150	0	0	    0	   -0.005167	    0.009154	    0.003987	   -0.039118	    0.038371	   -0.000747	   -0.043172	    0.074006	    0.030834	   -0.012479	    0.037516	    0.025037	   -0.038682	    0.043967	    0.005285	   -0.023865	    0.014543	   -0.009323	   -0.012224	   -0.002065	   -0.014289	   -0.004379	   -0.006443	   -0.010822	   -0.017485	    0.015213	   -0.002271	   -0.066539	    0.029053	   -0.037486	   -0.056547	    0.052621	   -0.003926	   -0.046606	    0.025066	   -0.021540	   -0.032762	    0.038550	    0.005788	   -0.006523	   -0.017982	   -0.024505	   -0.006497	    0.003453	   -0.003045	   -0.002345	    0.000605	   -0.001740	   -0.034637	    0.018038	   -0.016599	   -0.084073	    0.048542	   -0.035530	   -0.073406	    0.055936	   -0.017470	   -0.056971	    0.028173	   -0.028798	   -0.009954	    0.004238	   -0.005716	   -0.006418	   -0.004594	   -0.011012
     9.225	0	0	    0	   -0.007513	    0.009338	    0.001824	   -0.042724	    0.038731	   -0.003993	   -0.045111	    0.073525	    0.028413	   -0.012423	    0.035567	    0.023144	   -0.039778	    0.043690	    0.003912	   -0.024796	    0.013305	   -0.011491	   -0.016446	   -0.003033	   -0.019479	   -0.005443	   -0.006143	   -0.011586	   -0.019815	    0.014802	   -0.005013	   -0.069578	    0.027809	   -0.041769	   -0.059086	    0.052083	   -0.007003	   -0.049617	    0.024702	   -0.024915	   -0.037288	    0.038553	    0.001265	   -0.010345	   -0.017548	   -0.027893	   -0.005385	   -0.000084	   -0.005469	   -0.003581	    0.000832	   -0.002750	   -0.037204	    0.015320	   -0.021884	   -0.090712	    0.047870	   -0.042842	   -0.079419	    0.053850	   -0.025569	   -0.063627	    0.027157	   -0.036469	   -0.014389	    0.005259	   -0.009130	   -0.004591	   -0.006808	   -0.011399
     9.300	0	0	    0	   -0.009161	    0.008603	   -0.000558	   -0.045596	    0.038114	   -0.007481	   -0.047901	    0.074080	    0.026179	   -0.014672	    0.036137	    0.021465	   -0.041197	    0.043730	    0.002533	   -0.027662	    0.013775	   -0.013887	   -0.015997	   -0.005051	   -0.021048	   -0.006855	   -0.006540	   -0.013396	   -0.022298	    0.015013	   -0.007286	   -0.075128	    0.027454	   -0.047673	   -0.062175	    0.051433	   -0.010742	   -0.052397	    0.025056	   -0.027341	   -0.041793	    0.037570	   -0.004224	   -0.013579	   -0.017650	   -0.031230	   -0.006641	    0.000604	   -0.006036	   -0.004104	    0.000369	   -0.003735	   -0.042345	    0.015509	   -0.026835	   -0.095681	    0.045839	   -0.049842	   -0.085742	    0.053153	   -0.032589	   -0.070823	    0.028059	   -0.042763	   -0.017736	    0.003661	   -0.014075	   -0.005824	   -0.007873	   -0.013697
     9.375	0	0	    0	   -0.010854	    0.008552	   -0.002302	   -0.041472	    0.035902	   -0.005570	   -0.047142	    0.072563	    0.025420	   -0.014993	    0.034212	    0.019219	   -0.041678	    0.042782	    0.001104	   -0.023406	    0.011909	   -0.011497	   -0.010293	   -0.005644	   -0.015937	   -0.007086	   -0.006746	   -0.013833	   -0.020690	    0.012918	   -0.007772	   -0.067497	    0.023783	   -0.043714	   -0.058873	    0.049154	   -0.009719	   -0.054572	    0.023736	   -0.030835	   -0.038600	    0.033458	   -0.005142	   -0.002521	   -0.021203	   -0.023724	   -0.004717	   -0.000026	   -0.004743	   -0.003257	   -0.000571	   -0.003828	   -0.040635	    0.014166	   -0.026469	   -0.083629	    0.043282	   -0.040346	   -0.072609	    0.048690	   -0.023919	   -0.068361	    0.022368	   -0.045993	   -0.014194	    0.000995	   -0.013199	   -0.001325	   -0.008850	   -0.010175
     9.450	0	0	    0	   -0.005945	    0.009168	    0.003223	   -0.032289	    0.038961	    0.006672	   -0.041479	    0.073568	    0.032088	   -0.014309	    0.034544	    0.020235	   -0.039352	    0.043628	    0.004277	   -0.017962	    0.015121	   -0.002841	   -0.007480	   -0.002250	   -0.009730	   -0.001652	   -0.006742	   -0.008394	   -0.013084	    0.015650	    0.002567	   -0.054387	    0.030121	   -0.024266	   -0.052574	    0.052037	   -0.000537	   -0.045601	    0.023341	   -0.022260	   -0.022242	    0.038671	    0.016429	    0.000155	   -0.012741	   -0.012586	   -0.002291	    0.000275	   -0.002016	    0.001016	    0.000785	    0.001802	   -0.024751	    0.016185	   -0.008565	   -0.067029	    0.049468	   -0.017561	   -0.055545	    0.055564	    0.000018	   -0.043929	    0.026832	   -0.017097	   -0.000245	    0.005384	    0.005139	   -0.000811	   -0.006250	   -0.007061
     9.525	0	0	    0	   -0.002298	    0.009574	    0.007276	   -0.028840	    0.040173	    0.011333	   -0.038061	    0.073055	    0.034994	   -0.011801	    0.034111	    0.022310	   -0.036093	    0.043357	    0.007264	   -0.015630	    0.017101	    0.001471	   -0.004737	    0.000108	   -0.004629	   -0.000384	   -0.005378	   -0.005762	   -0.010211	    0.016171	    0.005960	   -0.049666	    0.030799	   -0.018867	   -0.048566	    0.052787	    0.004220	   -0.040438	    0.024490	   -0.015948	   -0.019300	    0.041509	    0.022209	    0.000599	   -0.013068	   -0.012469	    0.000462	   -0.000601	   -0.000139	    0.001843	    0.001628	    0.003471	   -0.021544	    0.020033	   -0.001511	   -0.063907	    0.052456	   -0.011451	   -0.052659	    0.058888	    0.006229	   -0.039326	    0.033216	   -0.006110	    0.002387	    0.008276	    0.010663	   -0.000084	   -0.006410	   -0.006495
     9.600	0	0	    0	   -0.001096	    0.008453	    0.007357	   -0.028084	    0.040777	    0.012693	   -0.037553	    0.073850	    0.036297	   -0.010929	    0.034013	    0.023084	   -0.034344	    0.044080	    0.009735	   -0.015153	    0.018083	    0.002929	   -0.004266	   -0.001152	   -0.005418	    0.000406	   -0.005709	   -0.005303	   -0.010482	    0.017543	    0.007061	   -0.048143	    0.032294	   -0.015849	   -0.047841	    0.053071	    0.005230	   -0.038004	    0.025378	   -0.012626	   -0.017979	    0.043236	    0.025257	   -0.000209	   -0.012907	   -0.013116	   -0.000939	    0.000159	   -0.000780	    0.002608	    0.001505	    0.004114	   -0.021361	    0.023007	    0.001646	   -0.062863	    0.052775	   -0.010088	   -0.052546	    0.059089	    0.006543	   -0.037488	    0.034836	   -0.002652	    0.002073	    0.009709	    0.011782	   -0.001536	   -0.006213	   -0.007749
     9.675	0	0	    0	   -0.001297	    0.008478	    0.007181	   -0.027628	    0.040386	    0.012758	   -0.037376	    0.074014	    0.036638	   -0.010322	    0.033448	    0.023126	   -0.032447	    0.043820	    0.011374	   -0.012896	    0.017806	    0.004910	   -0.003286	   -0.005097	   -0.008382	    0.000370	   -0.005498	   -0.005128	   -0.009356	    0.015744	    0.006389	   -0.047600	    0.032091	   -0.015509	   -0.046620	    0.052879	    0.006259	   -0.036813	    0.025077	   -0.011737	   -0.017976	    0.042894	    0.024918	    0.000486	   -0.015038	   -0.014552	   -0.001925	    0.001049	   -0.000876	    0.002871	    0.001218	    0.004089	   -0.019460	    0.021040	    0.001580	   -0.061888	    0.050955	   -0.010932	   -0.052609	    0.057376	    0.004767	   -0.037209	    0.031721	   -0.005488	    0.002608	    0.008150	    0.010759	   -0.001727	   -0.005202	   -0.006929
     9.750	0	0	    0	   -0.001037	    0.007921	    0.006885	   -0.026853	    0.039842	    0.012988	   -0.036232	    0.073087	    0.036855	   -0.010614	    0.033680	    0.023067	   -0.031654	    0.044998	    0.013344	   -0.010889	    0.017038	    0.006148	   -0.007891	   -0.000564	   -0.008454	    0.000130	   -0.005696	   -0.005567	   -0.009747	    0.016338	    0.006591	   -0.046032	    0.032012	   -0.014020	   -0.046605	    0.053254	    0.006649	   -0.036179	    0.026763	   -0.009417	   -0.016357	    0.042762	    0.026405	    0.002347	   -0.014990	   -0.012643	   -0.004274	    0.002694	   -0.001580	    0.002928	    0.001432	    0.004360	   -0.019305	    0.021645	    0.002340	   -0.063643	    0.052186	   -0.011457	   -0.054782	    0.058097	    0.003316	   -0.037695	    0.033272	   -0.004423	    0.002706	    0.008051	    0.010757	   -0.001728	   -0.005325	   -0.007053
     9.825	0	0	    0	   -0.002863	    0.008624	    0.005761	   -0.029103	    0.040083	    0.010980	   -0.037006	    0.073219	    0.036213	   -0.011100	    0.034229	    0.023129	   -0.030729	    0.045036	    0.014307	   -0.011670	    0.017106	    0.005436	   -0.006928	   -0.003230	   -0.010158	   -0.001299	   -0.004849	   -0.006148	   -0.011229	    0.016151	    0.004922	   -0.049955	    0.032515	   -0.017439	   -0.048598	    0.052650	    0.004052	   -0.036438	    0.026781	   -0.009656	   -0.019537	    0.043866	    0.024329	   -0.002246	   -0.016277	   -0.018524	   -0.000360	   -0.001635	   -0.001995	    0.002485	    0.001309	    0.003794	   -0.021041	    0.020887	   -0.000154	   -0.066174	    0.050107	   -0.016067	   -0.058538	    0.056725	   -0.001813	   -0.041404	    0.032596	   -0.008808	   -0.000145	    0.008071	    0.007927	   -0.000423	   -0.008341	   -0.008764
     9.900	0	0	    0	   -0.003273	    0.007323	    0.004050	   -0.031617	    0.039441	    0.007824	   -0.038923	    0.073193	    0.034270	   -0.011962	    0.034114	    0.022152	   -0.031880	    0.045544	    0.013664	   -0.012582	    0.017018	    0.004436	   -0.013345	   -0.001816	   -0.015161	   -0.002124	   -0.005600	   -0.007724	   -0.013335	    0.016065	    0.002730	   -0.053346	    0.030526	   -0.022820	   -0.050365	    0.051916	    0.001551	   -0.038964	    0.026287	   -0.012677	   -0.022897	    0.042592	    0.019695	   -0.005122	   -0.013917	   -0.019040	   -0.001747	   -0.001285	   -0.003033	    0.001629	    0.001620	    0.003249	   -0.026865	    0.022670	   -0.004195	   -0.071288	    0.049327	   -0.021961	   -0.063966	    0.056028	   -0.007938	   -0.047027	    0.032316	   -0.014711	   -0.004140	    0.008527	    0.004387	    0.001214	   -0.008927	   -0.007713
