 [File Information]      		 [Data Line]	36
Measured Date	2024/05/21 103628
ID		Version	11.0
Name	tristan_6	[HeaderType]	11.0/11.0
Comment	
[Measurement Info.]
Holder Location	       0
Block Design	Off     
Pre.Rest Time	       0
Task Time	       0
Pos.Rest Time	       0
Loop	       0
Averaging	       1
Total Points	     834
[.INF File]
Filename	Cognitive1.INF
[Condition-1]
HV Switching	OFF
 R1 ,R2 ,R3 ,R4 ,R5 ,R6 ,R7 ,R8 
 120.00, 70.00,120.00,100.00, 90.00, 70.00,120.00,120.00
 Gain(X1,X4,X16,X64)
 R1 ,R2 ,R3 ,R4 ,R5 ,R6 ,R7 ,R8 
 1,1,1,1,1,1,1,1
[Analysis Condition]
Smoothed Type	None            
Smoothed Points	       0
Smoothed Loop	       0
Baseline Method	None            
Baseline location	
[Text Info.]
Output Mode	Continious      	Task No.		Data Type	Hb      
Time Range	    0.00	   62.48	Averaing	1
(1,3)(5,3)(5,7)(2,7)(2,4)(6,4)(6,8)(1,1)(3,3)(5,5)(7,7)(2,2)(4,4)(6,6)(8,8)(3,1)(3,5)(7,5)(7,2)(4,2)(4,6)(8,6)
         	     	     	     	    ch- 1	    ch- 1	    ch- 1	    ch- 2	    ch- 2	    ch- 2	    ch- 3	    ch- 3	    ch- 3	    ch- 4	    ch- 4	    ch- 4	    ch- 5	    ch- 5	    ch- 5	    ch- 6	    ch- 6	    ch- 6	    ch- 7	    ch- 7	    ch- 7	    ch- 8	    ch- 8	    ch- 8	    ch- 9	    ch- 9	    ch- 9	    ch-10	    ch-10	    ch-10	    ch-11	    ch-11	    ch-11	    ch-12	    ch-12	    ch-12	    ch-13	    ch-13	    ch-13	    ch-14	    ch-14	    ch-14	    ch-15	    ch-15	    ch-15	    ch-16	    ch-16	    ch-16	    ch-17	    ch-17	    ch-17	    ch-18	    ch-18	    ch-18	    ch-19	    ch-19	    ch-19	    ch-20	    ch-20	    ch-20	    ch-21	    ch-21	    ch-21	    ch-22	    ch-22	    ch-22
Time(sec)	Task	Mark	Count	    oxyHb   	  deoxyHb	  totalHb	    oxyHb   	  deoxyHb	  totalHb	    oxyHb   	  deoxyHb	  totalHb	    oxyHb   	  deoxyHb	  totalHb	    oxyHb   	  deoxyHb	  totalHb	    oxyHb   	  deoxyHb	  totalHb	    oxyHb   	  deoxyHb	  totalHb	    oxyHb   	  deoxyHb	  totalHb	    oxyHb   	  deoxyHb	  totalHb	    oxyHb   	  deoxyHb	  totalHb	    oxyHb   	  deoxyHb	  totalHb	    oxyHb   	  deoxyHb	  totalHb	    oxyHb   	  deoxyHb	  totalHb	    oxyHb   	  deoxyHb	  totalHb	    oxyHb   	  deoxyHb	  totalHb	    oxyHb   	  deoxyHb	  totalHb	    oxyHb   	  deoxyHb	  totalHb	    oxyHb   	  deoxyHb	  totalHb	    oxyHb   	  deoxyHb	  totalHb	    oxyHb   	  deoxyHb	  totalHb	    oxyHb   	  deoxyHb	  totalHb	    oxyHb   	  deoxyHb	  totalHb
     0.000	0	0Z	    0	    0.000000	    0.000000	    0.000000	    0.000000	    0.000000	    0.000000	    0.000000	    0.000000	    0.000000	    0.000000	    0.000000	    0.000000	    0.000000	    0.000000	    0.000000	    0.000000	    0.000000	    0.000000	    0.000000	    0.000000	    0.000000	    0.000000	    0.000000	    0.000000	    0.000000	    0.000000	    0.000000	    0.000000	    0.000000	    0.000000	    0.000000	    0.000000	    0.000000	    0.000000	    0.000000	    0.000000	    0.000000	    0.000000	    0.000000	    0.000000	    0.000000	    0.000000	    0.000000	    0.000000	    0.000000	    0.000000	    0.000000	    0.000000	    0.000000	    0.000000	    0.000000	    0.000000	    0.000000	    0.000000	    0.000000	    0.000000	    0.000000	    0.000000	    0.000000	    0.000000	    0.000000	    0.000000	    0.000000	    0.000000	    0.000000	    0.000000
     0.075	0	0	    0	    0.003345	    0.001538	    0.004884	    0.013438	    0.000664	    0.014103	    0.006722	   -0.000558	    0.006164	    0.004611	    0.000991	    0.005603	    0.004265	    0.001972	    0.006236	    0.010151	    0.003703	    0.013854	    0.007600	    0.006736	    0.014336	    0.003652	    0.000666	    0.004318	    0.007240	    0.000463	    0.007703	    0.016797	    0.000733	    0.017531	    0.009702	   -0.000037	    0.009664	    0.005146	    0.003477	    0.008624	    0.016107	   -0.001490	    0.014617	    0.008043	    0.005632	    0.013674	    0.003572	    0.000264	    0.003837	    0.004821	   -0.000702	    0.004119	    0.012601	   -0.001981	    0.010619	    0.017501	    0.004950	    0.022451	    0.014906	    0.004427	    0.019333	    0.016279	   -0.000209	    0.016070	    0.011774	   -0.001173	    0.010601	    0.005354	   -0.001874	    0.003480
     0.150	0	0	    0	    0.003843	    0.001489	    0.005332	    0.016900	    0.002865	    0.019765	    0.010899	    0.002082	    0.012982	    0.005025	    0.001383	    0.006408	    0.006176	    0.002241	    0.008418	    0.015524	    0.004961	    0.020485	    0.011724	    0.005207	    0.016932	    0.003360	    0.001310	    0.004670	    0.011435	    0.000874	    0.012308	    0.020445	    0.005419	    0.025864	    0.012524	    0.001729	    0.014253	    0.005942	    0.004420	    0.010362	    0.023009	    0.003084	    0.026093	    0.009702	    0.008215	    0.017917	    0.005732	   -0.001202	    0.004530	    0.006482	    0.000321	    0.006803	    0.019534	    0.000924	    0.020458	    0.020809	    0.007680	    0.028489	    0.019146	    0.005501	    0.024647	    0.024872	    0.003983	    0.028855	    0.018826	    0.001824	    0.020651	    0.005622	   -0.000371	    0.005251
     0.225	0	0	    0	    0.004923	    0.000494	    0.005416	    0.017174	    0.003488	    0.020662	    0.012319	    0.000853	    0.013171	    0.003963	    0.000898	    0.004861	    0.006405	    0.001622	    0.008027	    0.013888	    0.007078	    0.020966	    0.003003	    0.012133	    0.015136	    0.002099	    0.000942	    0.003041	    0.011114	    0.001835	    0.012949	    0.021010	    0.005783	    0.026793	    0.012819	    0.001024	    0.013844	    0.003652	    0.004169	    0.007821	    0.023002	    0.004638	    0.027640	    0.010820	    0.006993	    0.017813	    0.005129	   -0.001858	    0.003271	    0.006677	    0.000990	    0.007667	    0.018618	    0.002926	    0.021544	    0.021985	    0.006795	    0.028780	    0.018112	    0.006606	    0.024718	    0.025169	    0.004797	    0.029967	    0.018253	    0.002333	    0.020587	    0.007149	   -0.001813	    0.005336
     0.300	0	0	    0	    0.025996	    0.004415	    0.030411	    0.018904	    0.002634	    0.021538	    0.010214	    0.000513	    0.010726	    0.021686	    0.004249	    0.025935	   -0.005053	    0.006627	    0.001574	    0.011253	    0.008653	    0.019906	    0.009400	    0.007854	    0.017254	   -0.002333	    0.001375	   -0.000958	    0.009647	    0.001291	    0.010938	   -0.000190	    0.007528	    0.007338	   -0.009206	    0.002732	   -0.006474	   -0.056595	   -0.003122	   -0.059717	    0.016296	    0.004605	    0.020902	    0.007189	    0.006894	    0.014082	    0.001140	    0.002039	    0.003179	    0.007450	    0.000774	    0.008224	    0.015700	    0.000684	    0.016384	    0.045489	    0.002826	    0.048315	    0.067328	   -0.003928	    0.063399	    0.025909	    0.003417	    0.029326	    0.014527	    0.001995	    0.016522	    0.006231	    0.000129	    0.006360
     0.375	0	0	    0	    0.056657	    0.040497	    0.097154	   -0.002192	    0.013451	    0.011259	    0.006641	    0.014507	    0.021147	    0.048988	    0.103471	    0.152459	   -0.145442	    0.079816	   -0.065625	   -0.027092	    0.058348	    0.031257	    0.042535	    0.019836	    0.062371	   -0.005539	   -0.004115	   -0.009655	    0.008390	   -0.005965	    0.002425	   -0.096660	   -0.033221	   -0.129881	   -0.042471	   -0.033786	   -0.076257	   -0.104520	   -0.021228	   -0.125748	    0.014862	   -0.003509	    0.011353	    0.017000	    0.002837	    0.019837	    0.003529	   -0.003299	    0.000230	    0.011954	    0.004922	    0.016876	    0.008475	   -0.014480	   -0.006005	    0.100597	    0.043119	    0.143716	    0.182480	    0.080583	    0.263063	    0.054116	    0.006968	    0.061084	    0.004723	   -0.004982	   -0.000259	    0.006673	    0.001516	    0.008189
     0.450	0	0	    0	    0.069104	    0.078605	    0.147710	   -0.035391	    0.007152	   -0.028239	   -0.016177	    0.049850	    0.033673	    0.052328	    0.207217	    0.259544	   -0.224203	    0.002189	   -0.222013	   -0.254664	    0.075331	   -0.179333	    0.059171	    0.056596	    0.115767	   -0.006909	   -0.006979	   -0.013887	    0.012235	   -0.007785	    0.004450	   -0.133586	   -0.089979	   -0.223565	   -0.041627	   -0.028522	   -0.070149	   -0.138032	   -0.013461	   -0.151493	   -0.074564	    0.000081	   -0.074483	    0.016266	    0.015544	    0.031810	    0.003907	   -0.000669	    0.003238	    0.013279	    0.009568	    0.022848	    0.013854	   -0.025045	   -0.011192	    0.119581	    0.077584	    0.197165	    0.216843	    0.148566	    0.365409	    0.078376	    0.023969	    0.102345	    0.010749	   -0.019543	   -0.008794	    0.008362	    0.003845	    0.012208
     0.525	0	0	    0	    0.070022	    0.090102	    0.160124	   -0.059225	    0.014879	   -0.044346	   -0.036024	    0.103108	    0.067084	    0.044245	    0.239494	    0.283738	   -0.238785	   -0.011468	   -0.250254	   -0.317413	   -0.026549	   -0.343962	    0.062869	    0.058030	    0.120900	   -0.006947	   -0.007496	   -0.014443	    0.015832	   -0.003765	    0.012067	   -0.148740	   -0.097836	   -0.246576	   -0.061024	    0.003328	   -0.057696	   -0.156718	   -0.012726	   -0.169444	   -0.093500	   -0.052775	   -0.146275	    0.012913	    0.008967	    0.021880	    0.006952	    0.001217	    0.008170	    0.013559	    0.011986	    0.025545	    0.013626	   -0.028556	   -0.014929	    0.112832	    0.087714	    0.200545	    0.200034	    0.162893	    0.362927	    0.070234	    0.031398	    0.101632	    0.013677	   -0.021796	   -0.008119	    0.008574	    0.004138	    0.012712
     0.600	0	0	    0	    0.064233	    0.087040	    0.151273	   -0.066799	    0.013392	   -0.053408	   -0.041277	    0.111022	    0.069745	    0.044923	    0.239405	    0.284329	   -0.238154	   -0.011040	   -0.249194	   -0.315709	   -0.050146	   -0.365854	    0.056636	    0.067126	    0.123762	   -0.009128	   -0.007854	   -0.016982	    0.015535	   -0.001184	    0.014351	   -0.154247	   -0.100404	   -0.254651	   -0.065644	    0.005410	   -0.060234	   -0.162296	   -0.018159	   -0.180455	   -0.104592	   -0.060768	   -0.165359	    0.008515	    0.011648	    0.020163	    0.006831	    0.003388	    0.010219	    0.012648	    0.013001	    0.025649	    0.008419	   -0.029470	   -0.021051	    0.097706	    0.088225	    0.185931	    0.175493	    0.157486	    0.332979	    0.055674	    0.024664	    0.080338	    0.008332	   -0.021797	   -0.013465	    0.004825	    0.004406	    0.009231
     0.675	0	0	    0	    0.060373	    0.081249	    0.141622	   -0.067980	    0.012198	   -0.055782	   -0.039014	    0.110564	    0.071550	    0.045055	    0.237888	    0.282944	   -0.235165	   -0.006016	   -0.241181	   -0.300880	   -0.046308	   -0.347188	    0.056718	    0.062550	    0.119268	   -0.011474	   -0.007408	   -0.018882	    0.012133	   -0.002980	    0.009153	   -0.157262	   -0.098027	   -0.255289	   -0.066956	    0.003566	   -0.063390	   -0.165170	   -0.017551	   -0.182721	   -0.109572	   -0.061094	   -0.170666	    0.006555	    0.009622	    0.016176	    0.005824	    0.003892	    0.009716	    0.010976	    0.012572	    0.023548	    0.000942	   -0.027929	   -0.026987	    0.087380	    0.083378	    0.170758	    0.159547	    0.148308	    0.307855	    0.037321	    0.016954	    0.054276	    0.000261	   -0.021396	   -0.021135	    0.004127	    0.001173	    0.005300
     0.750	0	0	    0	    0.059048	    0.076827	    0.135875	   -0.069188	    0.012666	   -0.056522	   -0.037864	    0.108917	    0.071053	    0.043769	    0.236446	    0.280215	   -0.236652	   -0.006409	   -0.243061	   -0.291764	   -0.038529	   -0.330292	    0.053500	    0.058155	    0.111655	   -0.011551	   -0.009403	   -0.020954	    0.009012	   -0.004403	    0.004609	   -0.157866	   -0.093719	   -0.251586	   -0.068996	    0.003069	   -0.065928	   -0.170241	   -0.019566	   -0.189807	   -0.110714	   -0.059807	   -0.170520	    0.005449	    0.007268	    0.012717	    0.006465	    0.001413	    0.007877	    0.008294	    0.012201	    0.020494	   -0.002763	   -0.025408	   -0.028171	    0.078367	    0.078287	    0.156654	    0.149227	    0.139569	    0.288797	    0.024805	    0.010258	    0.035062	   -0.005888	   -0.022472	   -0.028360	    0.003065	   -0.001382	    0.001682
     0.825	0	0	    0	    0.053970	    0.077710	    0.131680	   -0.073021	    0.013492	   -0.059529	   -0.040313	    0.110610	    0.070297	    0.042552	    0.235123	    0.277675	   -0.231775	   -0.006118	   -0.237893	   -0.293410	   -0.036256	   -0.329666	    0.050083	    0.059363	    0.109445	   -0.014247	   -0.008458	   -0.022705	    0.005600	   -0.003649	    0.001950	   -0.164628	   -0.090774	   -0.255402	   -0.072275	    0.001368	   -0.070907	   -0.171735	   -0.020268	   -0.192002	   -0.115719	   -0.060441	   -0.176160	    0.002455	    0.010148	    0.012603	    0.002813	    0.004287	    0.007100	    0.006477	    0.011032	    0.017509	   -0.005369	   -0.025265	   -0.030634	    0.069656	    0.078207	    0.147863	    0.137037	    0.139066	    0.276104	    0.012633	    0.009664	    0.022297	   -0.011404	   -0.019947	   -0.031351	    0.000414	    0.000446	    0.000860
     0.900	0	0	    0	    0.051479	    0.075239	    0.126717	   -0.076749	    0.014893	   -0.061856	   -0.040798	    0.109334	    0.068536	    0.041288	    0.233608	    0.274896	   -0.225173	   -0.003276	   -0.228449	   -0.280527	   -0.036798	   -0.317325	    0.050773	    0.054750	    0.105523	   -0.015888	   -0.009781	   -0.025669	    0.002975	   -0.004372	   -0.001397	   -0.167503	   -0.088647	   -0.256150	   -0.074808	    0.000525	   -0.074284	   -0.170712	   -0.020694	   -0.191406	   -0.116257	   -0.059401	   -0.175659	    0.000911	    0.007979	    0.008891	    0.002867	    0.004466	    0.007333	    0.004636	    0.010294	    0.014930	   -0.009565	   -0.023426	   -0.032991	    0.059468	    0.077618	    0.137086	    0.127559	    0.134951	    0.262511	    0.003116	    0.006916	    0.010032	   -0.015438	   -0.020889	   -0.036327	   -0.002286	    0.000248	   -0.002039
     0.975	0	0	    0	    0.056052	    0.071141	    0.127194	   -0.076089	    0.014131	   -0.061958	   -0.041171	    0.107510	    0.066339	    0.045114	    0.228439	    0.273553	   -0.221031	    0.004415	   -0.216616	   -0.271963	   -0.029602	   -0.301565	    0.054321	    0.050726	    0.105047	   -0.012361	   -0.009985	   -0.022346	   -0.000046	   -0.004996	   -0.005041	   -0.166316	   -0.086437	   -0.252752	   -0.074613	   -0.000267	   -0.074879	   -0.168801	   -0.020190	   -0.188991	   -0.115647	   -0.057814	   -0.173461	    0.006891	    0.001810	    0.008701	    0.006122	    0.001047	    0.007169	    0.002613	    0.009342	    0.011955	   -0.010185	   -0.025827	   -0.036013	    0.056110	    0.073605	    0.129715	    0.118903	    0.129711	    0.248615	   -0.008177	    0.005072	   -0.003105	   -0.018695	   -0.021272	   -0.039967	    0.000475	   -0.003158	   -0.002683
     1.050	0	0	    0	    0.058069	    0.072520	    0.130589	   -0.066187	    0.016118	   -0.050069	   -0.037058	    0.106706	    0.069648	    0.047549	    0.228871	    0.276420	   -0.218055	    0.004788	   -0.213267	   -0.265523	   -0.022199	   -0.287722	    0.057752	    0.053973	    0.111725	   -0.009608	   -0.010000	   -0.019608	    0.006997	   -0.003874	    0.003123	   -0.151501	   -0.081709	   -0.233210	   -0.069067	    0.000724	   -0.068342	   -0.160513	   -0.018081	   -0.178594	   -0.098936	   -0.053520	   -0.152455	    0.009601	    0.010448	    0.020049	    0.004882	    0.005081	    0.009963	    0.006288	    0.008673	    0.014961	   -0.001031	   -0.020066	   -0.021097	    0.072023	    0.077443	    0.149467	    0.138458	    0.130997	    0.269455	    0.008505	    0.003755	    0.012260	   -0.005024	   -0.018272	   -0.023296	    0.003948	   -0.003536	    0.000412
     1.125	0	0	    0	    0.057264	    0.073677	    0.130941	   -0.064962	    0.020627	   -0.044335	   -0.035797	    0.109406	    0.073609	    0.048954	    0.228272	    0.277226	   -0.222062	    0.008362	   -0.213700	   -0.261233	   -0.018428	   -0.279660	    0.052544	    0.059092	    0.111637	   -0.010787	   -0.009420	   -0.020207	    0.009426	   -0.002975	    0.006451	   -0.148590	   -0.073603	   -0.222193	   -0.066225	    0.002805	   -0.063421	   -0.163434	   -0.015015	   -0.178449	   -0.092794	   -0.047080	   -0.139875	    0.012474	    0.011342	    0.023817	    0.005855	    0.004895	    0.010750	    0.007248	    0.008945	    0.016194	    0.006483	   -0.015574	   -0.009091	    0.075554	    0.081906	    0.157460	    0.143944	    0.135326	    0.279271	    0.018340	    0.013007	    0.031348	    0.000562	   -0.012939	   -0.012377	    0.001728	   -0.000648	    0.001080
     1.200	0	0	    0	    0.056837	    0.073738	    0.130575	   -0.065268	    0.021743	   -0.043525	   -0.034883	    0.110353	    0.075470	    0.047972	    0.229688	    0.277660	   -0.225568	    0.006086	   -0.219481	   -0.263085	   -0.022084	   -0.285169	    0.057245	    0.053476	    0.110721	   -0.011372	   -0.009765	   -0.021137	    0.008047	   -0.000598	    0.007449	   -0.149994	   -0.071749	   -0.221743	   -0.069013	    0.004028	   -0.064985	   -0.167694	   -0.016284	   -0.183978	   -0.095780	   -0.044570	   -0.140350	    0.009801	    0.011141	    0.020942	    0.006216	    0.003128	    0.009344	    0.006826	    0.008875	    0.015701	    0.006322	   -0.014786	   -0.008464	    0.071550	    0.084177	    0.155728	    0.140152	    0.138256	    0.278407	    0.017699	    0.016894	    0.034593	   -0.000328	   -0.011196	   -0.011524	    0.000513	   -0.002003	   -0.001490
     1.275	0	0	    0	    0.057335	    0.072565	    0.129899	   -0.066762	    0.022890	   -0.043872	   -0.036824	    0.113409	    0.076585	    0.047902	    0.230363	    0.278264	   -0.224939	    0.005264	   -0.219676	   -0.266297	   -0.023227	   -0.289524	    0.055778	    0.057490	    0.113268	   -0.011261	   -0.009688	   -0.020949	    0.008809	   -0.002281	    0.006528	   -0.150186	   -0.071521	   -0.221707	   -0.069110	    0.002900	   -0.066210	   -0.167933	   -0.016799	   -0.184731	   -0.097479	   -0.046393	   -0.143872	    0.010293	    0.010018	    0.020311	    0.005182	    0.004860	    0.010042	    0.006187	    0.008104	    0.014291	    0.005709	   -0.014213	   -0.008504	    0.069299	    0.084233	    0.153532	    0.137337	    0.138945	    0.276283	    0.017687	    0.014369	    0.032056	   -0.001690	   -0.010091	   -0.011780	    0.000499	   -0.002491	   -0.001992
     1.350	0	0	    0	    0.054490	    0.072707	    0.127197	   -0.066967	    0.023826	   -0.043141	   -0.036615	    0.114648	    0.078033	    0.046377	    0.230275	    0.276652	   -0.221290	    0.005320	   -0.215971	   -0.260694	   -0.025357	   -0.286050	    0.059432	    0.056651	    0.116083	   -0.012626	   -0.008997	   -0.021622	    0.007573	    0.000099	    0.007672	   -0.149159	   -0.070707	   -0.219867	   -0.068643	    0.003585	   -0.065058	   -0.167281	   -0.016743	   -0.184023	   -0.098341	   -0.044998	   -0.143339	    0.012880	    0.011972	    0.024852	    0.003414	    0.006787	    0.010201	    0.006062	    0.007512	    0.013574	    0.005008	   -0.011471	   -0.006463	    0.065950	    0.087317	    0.153267	    0.132722	    0.141752	    0.274474	    0.014586	    0.018840	    0.033426	   -0.000437	   -0.009008	   -0.009445	   -0.000958	   -0.000169	   -0.001128
     1.425	0	0	    0	    0.052417	    0.071492	    0.123909	   -0.068545	    0.025189	   -0.043356	   -0.035411	    0.112241	    0.076830	    0.046408	    0.227969	    0.274377	   -0.218974	    0.006302	   -0.212672	   -0.259862	   -0.017568	   -0.277430	    0.059849	    0.052047	    0.111896	   -0.014030	   -0.009945	   -0.023976	    0.006144	   -0.000388	    0.005756	   -0.151803	   -0.067252	   -0.219055	   -0.070647	    0.003940	   -0.066707	   -0.168049	   -0.016751	   -0.184800	   -0.097874	   -0.043245	   -0.141119	    0.010768	    0.009827	    0.020595	    0.005975	    0.003123	    0.009098	    0.004402	    0.007394	    0.011796	    0.002616	   -0.009649	   -0.007033	    0.060034	    0.086776	    0.146810	    0.127549	    0.140012	    0.267560	    0.009135	    0.019921	    0.029056	   -0.002344	   -0.009191	   -0.011534	    0.001166	   -0.004784	   -0.003617
     1.500	0	0	    0	    0.049693	    0.071789	    0.121482	   -0.072401	    0.026123	   -0.046277	   -0.039364	    0.114776	    0.075412	    0.047410	    0.225941	    0.273351	   -0.219148	    0.008903	   -0.210245	   -0.256760	   -0.017684	   -0.274444	    0.051307	    0.055769	    0.107077	   -0.014518	   -0.011397	   -0.025915	    0.003338	   -0.000298	    0.003039	   -0.157986	   -0.065955	   -0.223941	   -0.072162	    0.003733	   -0.068429	   -0.170238	   -0.015726	   -0.185964	   -0.101478	   -0.042134	   -0.143612	    0.008013	    0.009660	    0.017673	    0.004700	    0.002423	    0.007123	    0.003248	    0.006634	    0.009882	   -0.002047	   -0.009508	   -0.011555	    0.053368	    0.086127	    0.139495	    0.120072	    0.139733	    0.259805	    0.002212	    0.020605	    0.022817	   -0.007014	   -0.007824	   -0.014838	   -0.001658	   -0.003694	   -0.005352
     1.575	0	0	    0	    0.048343	    0.071374	    0.119717	   -0.077239	    0.027395	   -0.049844	   -0.042251	    0.116376	    0.074125	    0.047042	    0.225665	    0.272708	   -0.218909	    0.008947	   -0.209962	   -0.261052	   -0.016332	   -0.277385	    0.051244	    0.056573	    0.107817	   -0.016546	   -0.011181	   -0.027726	    0.001179	   -0.000823	    0.000355	   -0.164891	   -0.063949	   -0.228839	   -0.076589	    0.004774	   -0.071815	   -0.173416	   -0.015991	   -0.189407	   -0.107090	   -0.040944	   -0.148035	    0.005634	    0.010142	    0.015776	    0.000749	    0.005718	    0.006468	    0.002410	    0.006207	    0.008617	   -0.004835	   -0.011083	   -0.015918	    0.046137	    0.087956	    0.134093	    0.112186	    0.141422	    0.253607	   -0.005517	    0.021846	    0.016329	   -0.010711	   -0.008292	   -0.019003	   -0.004675	   -0.003507	   -0.008182
     1.650	0	0	    0	    0.045976	    0.070458	    0.116434	   -0.080579	    0.027787	   -0.052792	   -0.042901	    0.115603	    0.072702	    0.045923	    0.224743	    0.270666	   -0.215614	    0.010439	   -0.205175	   -0.255101	   -0.017457	   -0.272558	    0.042949	    0.060490	    0.103439	   -0.017276	   -0.012431	   -0.029707	   -0.002490	    0.000719	   -0.001770	   -0.167834	   -0.064406	   -0.232240	   -0.078134	    0.004779	   -0.073356	   -0.174338	   -0.015788	   -0.190126	   -0.110009	   -0.041625	   -0.151634	   -0.002019	    0.014085	    0.012066	    0.001278	    0.003892	    0.005170	    0.001233	    0.005947	    0.007180	   -0.010633	   -0.009693	   -0.020326	    0.038202	    0.088103	    0.126304	    0.104228	    0.139663	    0.243892	   -0.013997	    0.022071	    0.008074	   -0.014556	   -0.007785	   -0.022341	   -0.004191	   -0.005706	   -0.009898
     1.725	0	0	    0	    0.044264	    0.069076	    0.113340	   -0.083578	    0.028586	   -0.054992	   -0.043793	    0.114434	    0.070641	    0.044263	    0.223868	    0.268131	   -0.215497	    0.015868	   -0.199628	   -0.250567	   -0.014888	   -0.265455	    0.049404	    0.049042	    0.098445	   -0.018954	   -0.012645	   -0.031598	   -0.004309	   -0.000636	   -0.004946	   -0.172588	   -0.062957	   -0.235544	   -0.080581	    0.005005	   -0.075576	   -0.177525	   -0.013752	   -0.191276	   -0.111694	   -0.040602	   -0.152296	    0.001279	    0.008139	    0.009418	    0.002525	    0.001886	    0.004410	   -0.000646	    0.006126	    0.005480	   -0.013676	   -0.009985	   -0.023661	    0.031141	    0.087016	    0.118156	    0.095957	    0.138439	    0.234397	   -0.022159	    0.022721	    0.000562	   -0.019656	   -0.007307	   -0.026963	   -0.005137	   -0.005315	   -0.010452
     1.800	0	0	    0	    0.049375	    0.068671	    0.118046	   -0.082968	    0.027492	   -0.055476	   -0.046390	    0.115816	    0.069426	    0.047489	    0.221604	    0.269093	   -0.212591	    0.015606	   -0.196985	   -0.250237	   -0.013402	   -0.263638	    0.047259	    0.053391	    0.100649	   -0.013503	   -0.013195	   -0.026698	   -0.005472	   -0.001197	   -0.006669	   -0.172738	   -0.062763	   -0.235502	   -0.081459	    0.004452	   -0.077007	   -0.170690	   -0.015971	   -0.186661	   -0.113772	   -0.040330	   -0.154103	    0.006090	    0.006559	    0.012649	    0.002315	    0.002873	    0.005189	   -0.000904	    0.004552	    0.003648	   -0.015714	   -0.009789	   -0.025503	    0.035121	    0.084573	    0.119694	    0.097741	    0.136014	    0.233755	   -0.026986	    0.021153	   -0.005833	   -0.021368	   -0.007472	   -0.028840	   -0.005444	   -0.003494	   -0.008938
     1.875	0	0	    0	    0.050563	    0.069228	    0.119791	   -0.074312	    0.030517	   -0.043795	   -0.040566	    0.115407	    0.074841	    0.049163	    0.221559	    0.270722	   -0.210027	    0.018931	   -0.191097	   -0.241918	   -0.011315	   -0.253233	    0.054332	    0.056115	    0.110446	   -0.012176	   -0.011992	   -0.024168	    0.001316	    0.000541	    0.001857	   -0.159147	   -0.057978	   -0.217125	   -0.073606	    0.006120	   -0.067485	   -0.165922	   -0.011257	   -0.177179	   -0.098433	   -0.036233	   -0.134665	    0.014645	    0.009541	    0.024185	    0.006112	    0.002967	    0.009079	    0.002851	    0.004945	    0.007796	   -0.001627	   -0.008449	   -0.010076	    0.049798	    0.090186	    0.139984	    0.117507	    0.140896	    0.258403	   -0.004781	    0.023685	    0.018904	   -0.006298	   -0.005100	   -0.011398	   -0.000380	   -0.005130	   -0.005510
     1.950	0	0	    0	    0.050628	    0.069943	    0.120571	   -0.072733	    0.032723	   -0.040010	   -0.039656	    0.117113	    0.077457	    0.050207	    0.221153	    0.271361	   -0.208556	    0.020054	   -0.188502	   -0.240290	   -0.007116	   -0.247406	    0.059394	    0.051226	    0.110619	   -0.012025	   -0.011534	   -0.023559	    0.002510	    0.002154	    0.004664	   -0.156069	   -0.054567	   -0.210636	   -0.073048	    0.008227	   -0.064821	   -0.164909	   -0.010214	   -0.175123	   -0.092900	   -0.031709	   -0.124609	    0.012214	    0.011292	    0.023507	    0.006073	    0.003489	    0.009562	    0.003616	    0.005262	    0.008879	    0.001726	   -0.003696	   -0.001971	    0.051222	    0.094368	    0.145590	    0.119747	    0.145737	    0.265485	    0.001031	    0.031101	    0.032131	   -0.002583	   -0.001508	   -0.004091	   -0.002014	   -0.003061	   -0.005074
     2.025	0	0	    0	    0.049991	    0.070352	    0.120343	   -0.074529	    0.034655	   -0.039874	   -0.040497	    0.118731	    0.078234	    0.049457	    0.221857	    0.271314	   -0.208524	    0.020690	   -0.187834	   -0.238550	   -0.006375	   -0.244925	    0.056778	    0.051736	    0.108514	   -0.012652	   -0.011386	   -0.024038	    0.001785	    0.002437	    0.004222	   -0.158602	   -0.051576	   -0.210179	   -0.073114	    0.009205	   -0.063909	   -0.165409	   -0.010527	   -0.175936	   -0.093829	   -0.029211	   -0.123039	    0.013339	    0.011634	    0.024973	    0.006850	    0.002368	    0.009218	    0.003021	    0.005481	    0.008503	   -0.001107	   -0.000306	   -0.001413	    0.047198	    0.096375	    0.143572	    0.116827	    0.146892	    0.263718	   -0.001182	    0.035457	    0.034276	   -0.005583	    0.002121	   -0.003462	   -0.001847	   -0.003492	   -0.005340
     2.100	0	0	    0	    0.049111	    0.070264	    0.119375	   -0.075272	    0.034475	   -0.040797	   -0.040945	    0.119128	    0.078182	    0.049768	    0.221709	    0.271477	   -0.207520	    0.023664	   -0.183856	   -0.237233	   -0.005618	   -0.242851	    0.055671	    0.051027	    0.106698	   -0.013018	   -0.011141	   -0.024159	    0.001112	    0.002246	    0.003358	   -0.159939	   -0.051347	   -0.211286	   -0.073039	    0.009076	   -0.063963	   -0.165496	   -0.008359	   -0.173855	   -0.094482	   -0.029661	   -0.124142	    0.013686	    0.006795	    0.020480	    0.004678	    0.003441	    0.008119	    0.002976	    0.005102	    0.008079	    0.000360	   -0.004021	   -0.003661	    0.046375	    0.096119	    0.142493	    0.114301	    0.147593	    0.261893	   -0.003297	    0.034352	    0.031055	   -0.005577	    0.000070	   -0.005507	   -0.005420	   -0.002527	   -0.007946
     2.175	0	0	    0	    0.046630	    0.070426	    0.117055	   -0.076902	    0.036260	   -0.040642	   -0.041400	    0.119944	    0.078544	    0.049140	    0.221677	    0.270817	   -0.205655	    0.023808	   -0.181848	   -0.236191	   -0.005031	   -0.241222	    0.057603	    0.049714	    0.107317	   -0.014594	   -0.010738	   -0.025332	    0.000406	    0.003146	    0.003551	   -0.160840	   -0.049717	   -0.210557	   -0.073712	    0.010097	   -0.063615	   -0.165905	   -0.008009	   -0.173914	   -0.095870	   -0.026775	   -0.122645	    0.009877	    0.010644	    0.020521	    0.004511	    0.004824	    0.009335	    0.002872	    0.005090	    0.007962	   -0.001364	   -0.000832	   -0.002196	    0.043686	    0.097369	    0.141056	    0.112696	    0.148520	    0.261216	   -0.006959	    0.038470	    0.031511	   -0.007175	    0.002933	   -0.004242	   -0.000985	   -0.006227	   -0.007211
     2.250	0	0	    0	    0.044380	    0.070501	    0.114880	   -0.078795	    0.036490	   -0.042305	   -0.043331	    0.121178	    0.077846	    0.047569	    0.220998	    0.268566	   -0.205038	    0.026919	   -0.178119	   -0.233216	   -0.003205	   -0.236421	    0.057916	    0.048976	    0.106892	   -0.015657	   -0.011498	   -0.027154	   -0.001311	    0.003191	    0.001880	   -0.163953	   -0.048899	   -0.212851	   -0.075615	    0.010632	   -0.064983	   -0.168413	   -0.006784	   -0.175197	   -0.097100	   -0.026730	   -0.123830	    0.007463	    0.010665	    0.018128	    0.005146	    0.004063	    0.009209	    0.001601	    0.005419	    0.007020	   -0.003467	   -0.001758	   -0.005226	    0.037336	    0.097456	    0.134792	    0.105315	    0.149085	    0.254400	   -0.010899	    0.037926	    0.027027	   -0.009707	    0.002367	   -0.007340	   -0.005240	   -0.002906	   -0.008146
     2.325	0	0	    0	    0.044300	    0.067850	    0.112150	   -0.082399	    0.036637	   -0.045762	   -0.045016	    0.120589	    0.075573	    0.048880	    0.219340	    0.268219	   -0.202350	    0.025488	   -0.176861	   -0.233312	   -0.001544	   -0.234856	    0.051684	    0.047601	    0.099285	   -0.015562	   -0.012726	   -0.028288	   -0.003978	    0.003018	   -0.000960	   -0.170220	   -0.047134	   -0.217354	   -0.078781	    0.010957	   -0.067824	   -0.168537	   -0.008561	   -0.177098	   -0.101714	   -0.025049	   -0.126763	    0.003134	    0.011429	    0.014563	    0.001832	    0.005084	    0.006915	    0.000872	    0.004817	    0.005688	   -0.008423	   -0.001122	   -0.009546	    0.030899	    0.097204	    0.128102	    0.099254	    0.148710	    0.247964	   -0.019273	    0.039433	    0.020160	   -0.014179	    0.002745	   -0.011434	   -0.006971	   -0.004331	   -0.011302
     2.400	0	0	    0	    0.041484	    0.068805	    0.110289	   -0.085991	    0.036998	   -0.048993	   -0.046472	    0.120704	    0.074231	    0.046375	    0.219549	    0.265924	   -0.204097	    0.029085	   -0.175012	   -0.231914	   -0.001852	   -0.233765	    0.047679	    0.050184	    0.097863	   -0.018139	   -0.012399	   -0.030539	   -0.005572	    0.002301	   -0.003271	   -0.174340	   -0.047514	   -0.221854	   -0.080863	    0.011248	   -0.069616	   -0.172659	   -0.006888	   -0.179547	   -0.106500	   -0.025302	   -0.131802	    0.000211	    0.009950	    0.010161	    0.001073	    0.005589	    0.006662	   -0.000451	    0.005107	    0.004656	   -0.012067	   -0.001551	   -0.013618	    0.022610	    0.098343	    0.120953	    0.089924	    0.149127	    0.239051	   -0.026586	    0.037749	    0.011162	   -0.017672	    0.001314	   -0.016358	   -0.007587	   -0.005830	   -0.013417
     2.475	0	0	    0	    0.041196	    0.067347	    0.108543	   -0.090302	    0.038085	   -0.052216	   -0.048502	    0.120782	    0.072279	    0.045937	    0.218117	    0.264053	   -0.205453	    0.029689	   -0.175764	   -0.232202	   -0.000478	   -0.232679	    0.052140	    0.042019	    0.094160	   -0.022588	   -0.015332	   -0.037921	   -0.008180	    0.002478	   -0.005701	   -0.179448	   -0.046926	   -0.226374	   -0.084044	    0.010929	   -0.073115	   -0.176077	   -0.007364	   -0.183441	   -0.110293	   -0.025360	   -0.135654	    0.000678	    0.006391	    0.007069	    0.001526	    0.003691	    0.005217	   -0.001628	    0.004505	    0.002877	   -0.014289	   -0.003125	   -0.017415	    0.016336	    0.097718	    0.114054	    0.083616	    0.148530	    0.232146	   -0.033313	    0.037121	    0.003808	   -0.020642	   -0.000209	   -0.020850	   -0.010195	   -0.005549	   -0.015744
     2.550	0	0	    0	    0.038893	    0.069283	    0.108176	   -0.093477	    0.038959	   -0.054517	   -0.052886	    0.122635	    0.069750	    0.042519	    0.220310	    0.262829	   -0.203712	    0.031204	   -0.172507	   -0.231041	   -0.002088	   -0.233129	    0.041779	    0.049896	    0.091676	   -0.024533	   -0.023692	   -0.048224	   -0.013727	    0.004293	   -0.009434	   -0.185116	   -0.046966	   -0.232082	   -0.087763	    0.012152	   -0.075611	   -0.177748	   -0.006504	   -0.184252	   -0.116289	   -0.026000	   -0.142290	   -0.006724	    0.010373	    0.003649	   -0.000530	    0.005117	    0.004586	   -0.004851	    0.005197	    0.000346	   -0.021968	    0.000637	   -0.021330	    0.009296	    0.097754	    0.107051	    0.076455	    0.148285	    0.224740	   -0.042221	    0.039595	   -0.002626	   -0.028179	    0.002259	   -0.025921	   -0.009852	   -0.006771	   -0.016623
     2.625	0	0	    0	    0.046235	    0.069667	    0.115902	   -0.084681	    0.037718	   -0.046963	   -0.051221	    0.121712	    0.070491	    0.047268	    0.217816	    0.265084	   -0.199519	    0.032496	   -0.167023	   -0.227224	    0.000141	   -0.227084	    0.050699	    0.048828	    0.099527	   -0.023408	   -0.030833	   -0.054241	   -0.009932	    0.001352	   -0.008579	   -0.175918	   -0.047845	   -0.223763	   -0.083834	    0.010817	   -0.073017	   -0.168265	   -0.005625	   -0.173890	   -0.108561	   -0.028160	   -0.136721	    0.007220	    0.005804	    0.013025	    0.007601	    0.001158	    0.008759	   -0.005109	    0.001507	   -0.003602	   -0.011963	   -0.003659	   -0.015622	    0.025097	    0.095844	    0.120941	    0.093392	    0.143915	    0.237307	   -0.034242	    0.033629	   -0.000612	   -0.018975	   -0.001577	   -0.020552	   -0.005784	   -0.007889	   -0.013673
     2.700	0	0	    0	    0.046686	    0.071410	    0.118095	   -0.077218	    0.041590	   -0.035628	   -0.047387	    0.123387	    0.076000	    0.048102	    0.218252	    0.266354	   -0.198108	    0.036888	   -0.161220	   -0.221106	    0.002829	   -0.218277	    0.054058	    0.047633	    0.101691	   -0.023296	   -0.035461	   -0.058757	   -0.004579	    0.001805	   -0.002773	   -0.165634	   -0.042619	   -0.208253	   -0.078361	    0.013640	   -0.064721	   -0.165551	   -0.001738	   -0.167289	   -0.094839	   -0.022320	   -0.117158	    0.010773	    0.008263	    0.019036	    0.008349	    0.003184	    0.011533	   -0.004138	   -0.000001	   -0.004139	    0.000080	    0.001879	    0.001959	    0.033025	    0.104042	    0.137067	    0.103691	    0.153723	    0.257413	   -0.012347	    0.039708	    0.027361	   -0.007793	    0.004268	   -0.003525	   -0.007439	   -0.007034	   -0.014473
     2.775	0	0	    0	    0.048528	    0.071601	    0.120129	   -0.076424	    0.044387	   -0.032036	   -0.047139	    0.125236	    0.078098	    0.048371	    0.219811	    0.268182	   -0.198944	    0.037306	   -0.161638	   -0.220122	    0.004533	   -0.215589	    0.054037	    0.048020	    0.102057	   -0.024765	   -0.036973	   -0.061737	   -0.004037	    0.001793	   -0.002244	   -0.165264	   -0.039432	   -0.204697	   -0.076879	    0.014192	   -0.062687	   -0.165819	   -0.001399	   -0.167218	   -0.093050	   -0.017952	   -0.111001	    0.009857	    0.010499	    0.020356	    0.006686	    0.005072	    0.011757	   -0.005723	   -0.001263	   -0.006986	    0.002695	    0.004806	    0.007501	    0.037390	    0.104462	    0.141852	    0.106919	    0.155851	    0.262770	   -0.009552	    0.045051	    0.035500	   -0.005184	    0.007023	    0.001839	   -0.004192	   -0.010519	   -0.014711
     2.850	0	0	    0	    0.051579	    0.073356	    0.124935	   -0.077678	    0.045794	   -0.031884	   -0.047773	    0.126445	    0.078672	    0.047945	    0.224622	    0.272567	   -0.218740	    0.035279	   -0.183461	   -0.222770	    0.007833	   -0.214937	    0.046657	    0.055854	    0.102511	   -0.024016	   -0.039160	   -0.063176	   -0.004506	    0.002576	   -0.001930	   -0.168707	   -0.037949	   -0.206656	   -0.083715	    0.017048	   -0.066666	   -0.178472	   -0.003002	   -0.181474	   -0.093784	   -0.017768	   -0.111552	    0.006736	    0.012200	    0.018936	    0.009705	    0.003250	    0.012955	   -0.006991	   -0.002498	   -0.009488	    0.003262	    0.005753	    0.009016	    0.037008	    0.104617	    0.141624	    0.109456	    0.155751	    0.265207	   -0.011845	    0.048538	    0.036693	   -0.005407	    0.007415	    0.002008	   -0.006086	   -0.010634	   -0.016720
     2.925	0	0	    0	    0.049248	    0.076914	    0.126161	   -0.079230	    0.045801	   -0.033429	   -0.050232	    0.132041	    0.081809	    0.043222	    0.227440	    0.270662	   -0.224606	    0.023168	   -0.201438	   -0.243569	   -0.003384	   -0.246954	    0.050561	    0.057077	    0.107638	   -0.024664	   -0.039179	   -0.063843	   -0.002774	    0.002545	   -0.000229	   -0.173828	   -0.042039	   -0.215867	   -0.085879	    0.013970	   -0.071909	   -0.184174	   -0.010009	   -0.194182	   -0.110181	   -0.022297	   -0.132478	    0.007981	    0.012805	    0.020786	    0.012314	    0.000170	    0.012484	   -0.008131	   -0.004149	   -0.012280	    0.003370	    0.005165	    0.008535	    0.036976	    0.107542	    0.144518	    0.110998	    0.163254	    0.274251	   -0.009881	    0.047587	    0.037706	   -0.005624	    0.006705	    0.001081	   -0.006637	   -0.010590	   -0.017228
     3.000	0	0	    0	    0.047117	    0.076922	    0.124040	   -0.080927	    0.046881	   -0.034047	   -0.052758	    0.135512	    0.082753	    0.044102	    0.225083	    0.269185	   -0.223166	    0.019300	   -0.203866	   -0.249604	   -0.010827	   -0.260430	    0.057015	    0.050411	    0.107426	   -0.026051	   -0.039772	   -0.065823	   -0.003185	    0.003394	    0.000208	   -0.174856	   -0.042168	   -0.217024	   -0.087231	    0.014768	   -0.072463	   -0.185621	   -0.012093	   -0.197714	   -0.110920	   -0.027816	   -0.138736	    0.006835	    0.013570	    0.020405	    0.004653	    0.008543	    0.013196	   -0.007179	   -0.004500	   -0.011679	    0.000950	    0.006662	    0.007612	    0.030515	    0.110456	    0.140971	    0.102389	    0.167119	    0.269508	   -0.012638	    0.049762	    0.037125	   -0.005455	    0.006577	    0.001122	   -0.011443	   -0.010353	   -0.021796
     3.075	0	0	    0	    0.046996	    0.074871	    0.121867	   -0.084715	    0.047887	   -0.036828	   -0.054372	    0.135594	    0.081222	    0.042028	    0.225223	    0.267251	   -0.222649	    0.019850	   -0.202799	   -0.251892	   -0.009281	   -0.261173	    0.052741	    0.052660	    0.105401	   -0.027323	   -0.040220	   -0.067543	   -0.004897	    0.002507	   -0.002390	   -0.180461	   -0.040764	   -0.221226	   -0.088999	    0.015162	   -0.073837	   -0.186845	   -0.012232	   -0.199077	   -0.114752	   -0.027035	   -0.141787	    0.008241	    0.012854	    0.021094	    0.008514	    0.004441	    0.012955	   -0.008528	   -0.004634	   -0.013162	   -0.003268	    0.006261	    0.002992	    0.024867	    0.109326	    0.134192	    0.094770	    0.166269	    0.261040	   -0.019773	    0.049747	    0.029974	   -0.007758	    0.007698	   -0.000060	   -0.010394	   -0.011424	   -0.021818
     3.150	0	0	    0	    0.043792	    0.076196	    0.119987	   -0.086888	    0.046610	   -0.040278	   -0.055851	    0.134638	    0.078787	    0.041970	    0.224475	    0.266445	   -0.223824	    0.021909	   -0.201915	   -0.249706	   -0.009290	   -0.258996	    0.052619	    0.051100	    0.103719	   -0.028573	   -0.040340	   -0.068912	   -0.007428	    0.002431	   -0.004996	   -0.184559	   -0.040845	   -0.225405	   -0.090967	    0.016183	   -0.074785	   -0.189721	   -0.010593	   -0.200314	   -0.118597	   -0.027386	   -0.145983	    0.002493	    0.014652	    0.017144	    0.006518	    0.006465	    0.012983	   -0.009965	   -0.005279	   -0.015243	   -0.007027	    0.005645	   -0.001382	    0.017756	    0.108173	    0.125930	    0.087581	    0.164113	    0.251694	   -0.026524	    0.048789	    0.022265	   -0.011136	    0.007227	   -0.003909	   -0.012472	   -0.013168	   -0.025640
     3.225	0	0	    0	    0.040771	    0.077378	    0.118149	   -0.090067	    0.046011	   -0.044056	   -0.057466	    0.134800	    0.077334	    0.040672	    0.225138	    0.265810	   -0.222159	    0.020317	   -0.201841	   -0.250972	   -0.008818	   -0.259789	    0.054656	    0.046560	    0.101216	   -0.029559	   -0.040031	   -0.069590	   -0.009551	    0.001803	   -0.007749	   -0.189365	   -0.040752	   -0.230117	   -0.094351	    0.016249	   -0.078102	   -0.190840	   -0.011224	   -0.202064	   -0.122700	   -0.027220	   -0.149920	    0.005889	    0.010192	    0.016080	    0.004161	    0.008019	    0.012179	   -0.011455	   -0.005706	   -0.017161	   -0.011426	    0.005838	   -0.005588	    0.011280	    0.108804	    0.120084	    0.080589	    0.164491	    0.245080	   -0.034634	    0.049923	    0.015289	   -0.017266	    0.010411	   -0.006855	   -0.014242	   -0.011626	   -0.025868
     3.300	0	0	    0	    0.043255	    0.074096	    0.117350	   -0.094797	    0.047154	   -0.047643	   -0.060459	    0.134158	    0.073699	    0.042303	    0.220689	    0.262992	   -0.220580	    0.022249	   -0.198330	   -0.249663	   -0.007828	   -0.257491	    0.047552	    0.050389	    0.097941	   -0.028809	   -0.041458	   -0.070267	   -0.011930	    0.002014	   -0.009916	   -0.193986	   -0.040856	   -0.234842	   -0.096178	    0.016278	   -0.079900	   -0.191486	   -0.010722	   -0.202207	   -0.127234	   -0.027485	   -0.154719	   -0.000762	    0.011417	    0.010655	    0.005702	    0.005668	    0.011370	   -0.013037	   -0.005751	   -0.018788	   -0.014964	    0.003882	   -0.011083	    0.004586	    0.107158	    0.111744	    0.073541	    0.162017	    0.235558	   -0.042550	    0.049531	    0.006981	   -0.020310	    0.006492	   -0.013818	   -0.014497	   -0.013391	   -0.027889
     3.375	0	0	    0	    0.047513	    0.075016	    0.122530	   -0.089072	    0.045074	   -0.043998	   -0.059149	    0.132347	    0.073198	    0.044566	    0.219216	    0.263783	   -0.216906	    0.024174	   -0.192732	   -0.246156	   -0.008641	   -0.254797	    0.053663	    0.050836	    0.104499	   -0.024536	   -0.040180	   -0.064716	   -0.009372	    0.000518	   -0.008854	   -0.187064	   -0.042489	   -0.229553	   -0.092527	    0.015305	   -0.077222	   -0.181087	   -0.011122	   -0.192209	   -0.123165	   -0.029115	   -0.152280	    0.006520	    0.012439	    0.018959	    0.007837	    0.006858	    0.014695	   -0.011449	   -0.007641	   -0.019090	   -0.011894	    0.002449	   -0.009445	    0.016847	    0.104921	    0.121768	    0.082448	    0.158441	    0.240889	   -0.039039	    0.043775	    0.004736	   -0.014637	    0.002769	   -0.011868	   -0.009353	   -0.013206	   -0.022559
     3.450	0	0	    0	    0.047189	    0.077166	    0.124355	   -0.081122	    0.047519	   -0.033603	   -0.055098	    0.132941	    0.077843	    0.045317	    0.220640	    0.265957	   -0.214132	    0.026320	   -0.187812	   -0.240633	   -0.003522	   -0.244155	    0.063331	    0.045269	    0.108600	   -0.023342	   -0.039418	   -0.062759	   -0.004937	    0.003826	   -0.001112	   -0.175015	   -0.036995	   -0.212010	   -0.086161	    0.018140	   -0.068021	   -0.176771	   -0.007266	   -0.184037	   -0.107475	   -0.023379	   -0.130854	    0.014414	    0.012623	    0.027038	    0.010868	    0.006774	    0.017642	   -0.008715	   -0.006475	   -0.015190	   -0.000797	    0.006904	    0.006106	    0.029475	    0.109619	    0.139094	    0.098363	    0.164293	    0.262656	   -0.019724	    0.050977	    0.031253	   -0.004388	    0.009235	    0.004847	   -0.006749	   -0.012912	   -0.019661
     3.525	0	0	    0	    0.046936	    0.075881	    0.122818	   -0.079483	    0.049068	   -0.030414	   -0.053105	    0.133087	    0.079982	    0.045962	    0.219491	    0.265454	   -0.209727	    0.029081	   -0.180646	   -0.235329	   -0.002158	   -0.237486	    0.061401	    0.048724	    0.110126	   -0.023534	   -0.038092	   -0.061626	   -0.003318	    0.003847	    0.000528	   -0.172828	   -0.033860	   -0.206687	   -0.082852	    0.018819	   -0.064033	   -0.173918	   -0.005135	   -0.179052	   -0.104114	   -0.019686	   -0.123800	    0.013508	    0.012360	    0.025867	    0.009807	    0.006480	    0.016286	   -0.008189	   -0.006357	   -0.014545	    0.000365	    0.010249	    0.010614	    0.029716	    0.112544	    0.142261	    0.099484	    0.167773	    0.267256	   -0.015182	    0.055759	    0.040577	   -0.002413	    0.011144	    0.008731	   -0.009092	   -0.011186	   -0.020278
     3.600	0	0	    0	    0.045000	    0.074270	    0.119270	   -0.079908	    0.049064	   -0.030844	   -0.053733	    0.133425	    0.079692	    0.045598	    0.218140	    0.263737	   -0.207641	    0.032454	   -0.175187	   -0.233590	   -0.000083	   -0.233674	    0.062285	    0.043863	    0.106148	   -0.023931	   -0.038910	   -0.062840	   -0.004550	    0.004485	   -0.000065	   -0.173195	   -0.032746	   -0.205941	   -0.082417	    0.019357	   -0.063060	   -0.172431	   -0.003710	   -0.176140	   -0.104535	   -0.016686	   -0.121221	    0.012968	    0.013203	    0.026171	    0.007628	    0.006532	    0.014160	   -0.008481	   -0.006375	   -0.014855	    0.000980	    0.009731	    0.010711	    0.027124	    0.112879	    0.140003	    0.096944	    0.168065	    0.265010	   -0.016791	    0.057652	    0.040861	   -0.004414	    0.012038	    0.007624	   -0.006842	   -0.010740	   -0.017582
     3.675	0	0	    0	    0.045381	    0.073394	    0.118774	   -0.079383	    0.049519	   -0.029863	   -0.052590	    0.131819	    0.079230	    0.045697	    0.218508	    0.264205	   -0.206374	    0.033042	   -0.173332	   -0.229965	    0.003073	   -0.226892	    0.055013	    0.052905	    0.107918	   -0.024772	   -0.037926	   -0.062698	   -0.003811	    0.003168	   -0.000642	   -0.172191	   -0.031827	   -0.204018	   -0.081069	    0.019845	   -0.061224	   -0.170695	   -0.003733	   -0.174428	   -0.102344	   -0.017275	   -0.119619	    0.012147	    0.013525	    0.025672	    0.008881	    0.006440	    0.015321	   -0.008877	   -0.006789	   -0.015666	   -0.000552	    0.010381	    0.009829	    0.027614	    0.112027	    0.139641	    0.097955	    0.166779	    0.264733	   -0.017531	    0.056802	    0.039271	   -0.004461	    0.009817	    0.005356	   -0.007908	   -0.009835	   -0.017743
     3.750	0	0	    0	    0.043342	    0.071681	    0.115023	   -0.079614	    0.048631	   -0.030983	   -0.052623	    0.131262	    0.078639	    0.046768	    0.216332	    0.263101	   -0.205485	    0.034522	   -0.170963	   -0.231202	    0.005097	   -0.226105	    0.059059	    0.045848	    0.104906	   -0.025006	   -0.039343	   -0.064349	   -0.005017	    0.004088	   -0.000930	   -0.173895	   -0.031421	   -0.205316	   -0.081353	    0.020675	   -0.060677	   -0.171346	   -0.002198	   -0.173544	   -0.102336	   -0.016367	   -0.118704	    0.008438	    0.014199	    0.022637	    0.007609	    0.006232	    0.013841	   -0.009748	   -0.006292	   -0.016040	   -0.000726	    0.009839	    0.009113	    0.023905	    0.112963	    0.136868	    0.095015	    0.167826	    0.262841	   -0.018613	    0.057508	    0.038895	   -0.005408	    0.009597	    0.004189	   -0.008835	   -0.009573	   -0.018408
     3.825	0	0	    0	    0.040418	    0.070867	    0.111285	   -0.082770	    0.049203	   -0.033567	   -0.054222	    0.131849	    0.077627	    0.046418	    0.216118	    0.262536	   -0.207429	    0.035702	   -0.171726	   -0.231399	    0.004157	   -0.227242	    0.050315	    0.051641	    0.101956	   -0.027269	   -0.039304	   -0.066573	   -0.005145	    0.002245	   -0.002900	   -0.177940	   -0.030738	   -0.208678	   -0.082691	    0.020596	   -0.062095	   -0.174024	   -0.001580	   -0.175604	   -0.105643	   -0.016197	   -0.121840	    0.006697	    0.011589	    0.018286	    0.009190	    0.003152	    0.012342	   -0.010708	   -0.006527	   -0.017235	   -0.003258	    0.009066	    0.005808	    0.020292	    0.111360	    0.131652	    0.090461	    0.167249	    0.257710	   -0.022705	    0.057152	    0.034447	   -0.008784	    0.008779	   -0.000005	   -0.005546	   -0.011274	   -0.016820
     3.900	0	0	    0	    0.038843	    0.070451	    0.109294	   -0.085848	    0.049593	   -0.036256	   -0.056118	    0.132493	    0.076375	    0.044896	    0.217303	    0.262200	   -0.206065	    0.034466	   -0.171598	   -0.235000	    0.004396	   -0.230603	    0.047762	    0.052127	    0.099889	   -0.024605	   -0.037382	   -0.061986	   -0.007401	    0.002856	   -0.004545	   -0.180773	   -0.031480	   -0.212253	   -0.084841	    0.020875	   -0.063966	   -0.174896	   -0.001525	   -0.176422	   -0.109473	   -0.017226	   -0.126698	    0.001759	    0.016193	    0.017952	    0.007886	    0.003269	    0.011155	   -0.011517	   -0.006825	   -0.018342	   -0.005882	    0.007873	    0.001991	    0.014226	    0.111999	    0.126225	    0.084883	    0.167502	    0.252385	   -0.027795	    0.057275	    0.029480	   -0.012609	    0.007773	   -0.004836	   -0.008435	   -0.008722	   -0.017157
     3.975	0	0	    0	    0.038611	    0.069318	    0.107929	   -0.088270	    0.048444	   -0.039825	   -0.056122	    0.130703	    0.074580	    0.044574	    0.214765	    0.259339	   -0.206845	    0.036331	   -0.170514	   -0.232041	    0.003823	   -0.228217	    0.047021	    0.052042	    0.099062	   -0.023191	   -0.032974	   -0.056165	   -0.009287	    0.002143	   -0.007145	   -0.183275	   -0.033223	   -0.216499	   -0.086154	    0.020623	   -0.065531	   -0.177425	   -0.001507	   -0.178932	   -0.112416	   -0.017673	   -0.130089	    0.001464	    0.011156	    0.012619	    0.005043	    0.007461	    0.012503	   -0.013028	   -0.007110	   -0.020138	   -0.008729	    0.005123	   -0.003606	    0.009067	    0.110075	    0.119142	    0.078499	    0.166019	    0.244518	   -0.034579	    0.056742	    0.022163	   -0.014259	    0.004515	   -0.009745	   -0.008052	   -0.008219	   -0.016270
     4.050	0	0	    0	    0.038501	    0.068418	    0.106920	   -0.092193	    0.048476	   -0.043717	   -0.057693	    0.131397	    0.073703	    0.043251	    0.215306	    0.258558	   -0.206193	    0.036820	   -0.169373	   -0.233313	    0.004546	   -0.228767	    0.046755	    0.047989	    0.094743	   -0.021528	   -0.032361	   -0.053890	   -0.012582	    0.002600	   -0.009982	   -0.188262	   -0.032066	   -0.220328	   -0.088805	    0.020725	   -0.068079	   -0.178864	   -0.002099	   -0.180963	   -0.116744	   -0.017513	   -0.134257	   -0.002105	    0.011933	    0.009828	    0.006922	    0.002845	    0.009767	   -0.014187	   -0.007006	   -0.021193	   -0.013847	    0.005767	   -0.008080	    0.003172	    0.108972	    0.112144	    0.073066	    0.164441	    0.237507	   -0.041992	    0.057551	    0.015559	   -0.020890	    0.006686	   -0.014204	   -0.009156	   -0.008010	   -0.017166
     4.125	0	0	    0	    0.045574	    0.068265	    0.113839	   -0.087605	    0.045642	   -0.041963	   -0.057878	    0.130952	    0.073074	    0.045205	    0.214868	    0.260073	   -0.207710	    0.037869	   -0.169840	   -0.231184	    0.003456	   -0.227728	    0.054132	    0.045187	    0.099318	   -0.015650	   -0.030658	   -0.046307	   -0.011508	    0.000916	   -0.010592	   -0.181876	   -0.035030	   -0.216906	   -0.086896	    0.019649	   -0.067247	   -0.173077	   -0.002049	   -0.175126	   -0.113985	   -0.020061	   -0.134046	    0.005812	    0.010685	    0.016498	    0.007644	    0.004586	    0.012230	   -0.012895	   -0.008501	   -0.021396	   -0.013618	    0.004828	   -0.008791	    0.014214	    0.106269	    0.120482	    0.082442	    0.161408	    0.243850	   -0.040545	    0.052337	    0.011792	   -0.017656	    0.002312	   -0.015345	   -0.004655	   -0.008052	   -0.012707
     4.200	0	0	    0	    0.045857	    0.070211	    0.116067	   -0.079113	    0.047980	   -0.031133	   -0.052873	    0.131635	    0.078763	    0.045430	    0.215398	    0.260829	   -0.202309	    0.037524	   -0.164785	   -0.226997	    0.002457	   -0.224540	    0.053032	    0.052314	    0.105346	   -0.014564	   -0.027715	   -0.042279	   -0.004970	    0.003238	   -0.001732	   -0.169327	   -0.032073	   -0.201400	   -0.080851	    0.022678	   -0.058174	   -0.167699	   -0.000092	   -0.167791	   -0.101414	   -0.016931	   -0.118345	    0.009194	    0.014529	    0.023723	    0.011072	    0.004640	    0.015711	   -0.009074	   -0.007516	   -0.016590	   -0.000767	    0.006280	    0.005514	    0.024813	    0.112046	    0.136859	    0.097414	    0.167292	    0.264705	   -0.018592	    0.058041	    0.039449	   -0.004788	    0.004714	   -0.000073	   -0.001026	   -0.007364	   -0.008391
     4.275	0	0	    0	    0.046981	    0.070439	    0.117420	   -0.077939	    0.049972	   -0.027967	   -0.051749	    0.132430	    0.080681	    0.048599	    0.213760	    0.262359	   -0.207904	    0.039921	   -0.167983	   -0.227840	    0.007328	   -0.220512	    0.056545	    0.049987	    0.106532	   -0.014856	   -0.026759	   -0.041615	   -0.005092	    0.004292	   -0.000800	   -0.168705	   -0.026627	   -0.195332	   -0.079022	    0.022700	   -0.056322	   -0.169935	    0.001941	   -0.167994	   -0.097897	   -0.012087	   -0.109984	    0.008015	    0.016897	    0.024912	    0.010675	    0.005414	    0.016088	   -0.009383	   -0.006332	   -0.015715	    0.002380	    0.008956	    0.011336	    0.027781	    0.113069	    0.140850	    0.100636	    0.169465	    0.270102	   -0.014019	    0.061360	    0.047340	   -0.003487	    0.008878	    0.005391	    0.000178	   -0.005913	   -0.005735
     4.350	0	0	    0	    0.056917	    0.072953	    0.129870	   -0.081676	    0.050423	   -0.031253	   -0.053490	    0.133997	    0.080507	    0.046473	    0.224498	    0.270971	   -0.262825	    0.028578	   -0.234247	   -0.255180	    0.013017	   -0.242163	    0.057072	    0.048322	    0.105394	   -0.015072	   -0.028027	   -0.043099	   -0.006517	    0.004781	   -0.001736	   -0.178573	   -0.026216	   -0.204788	   -0.087016	    0.024222	   -0.062794	   -0.193435	   -0.000763	   -0.194198	   -0.107887	   -0.008234	   -0.116121	    0.005594	    0.012963	    0.018557	    0.009800	    0.004026	    0.013827	   -0.009698	   -0.006237	   -0.015935	   -0.001448	    0.009383	    0.007936	    0.026539	    0.114783	    0.141322	    0.106599	    0.171314	    0.277914	   -0.014633	    0.062944	    0.048311	   -0.006908	    0.008525	    0.001617	    0.002185	   -0.008378	   -0.006193
     4.425	0	0	    0	    0.069246	    0.091872	    0.161118	   -0.095357	    0.053501	   -0.041856	   -0.066297	    0.151074	    0.084776	    0.036255	    0.244881	    0.281136	   -0.309535	   -0.022670	   -0.332205	   -0.370233	   -0.022295	   -0.392528	    0.070019	    0.067648	    0.137667	   -0.015452	   -0.027629	   -0.043081	   -0.005555	    0.002593	   -0.002962	   -0.202731	   -0.033625	   -0.236356	   -0.098145	    0.023455	   -0.074690	   -0.217092	   -0.011958	   -0.229050	   -0.159986	   -0.018039	   -0.178025	    0.009993	    0.021238	    0.031231	    0.010251	    0.006096	    0.016347	   -0.007138	   -0.006577	   -0.013715	   -0.012790	    0.004647	   -0.008144	    0.033194	    0.123037	    0.156231	    0.116982	    0.190837	    0.307819	   -0.004628	    0.064495	    0.059868	   -0.007293	    0.001594	   -0.005698	    0.005690	   -0.003315	    0.002374
     4.500	0	0	    0	    0.073139	    0.108366	    0.181505	   -0.109366	    0.056660	   -0.052706	   -0.082258	    0.162116	    0.079858	    0.034085	    0.252509	    0.286594	   -0.314256	   -0.052413	   -0.366670	   -0.409071	   -0.095219	   -0.504291	    0.070750	    0.072892	    0.143641	   -0.015241	   -0.027558	   -0.042799	   -0.004587	    0.004485	   -0.000102	   -0.217616	   -0.041253	   -0.258868	   -0.108127	    0.027385	   -0.080742	   -0.224538	   -0.024877	   -0.249415	   -0.203329	   -0.051420	   -0.254749	    0.008320	    0.021239	    0.029558	    0.011432	    0.005931	    0.017363	   -0.006933	   -0.003514	   -0.010448	   -0.017357	   -0.004800	   -0.022157	    0.031258	    0.127918	    0.159177	    0.113377	    0.200231	    0.313608	   -0.004277	    0.073723	    0.069446	   -0.006976	   -0.000781	   -0.007756	    0.006022	   -0.000603	    0.005419
     4.575	0	0	    0	    0.070647	    0.112497	    0.183144	   -0.121243	    0.057711	   -0.063532	   -0.092002	    0.166861	    0.074859	    0.030972	    0.259176	    0.290148	   -0.316606	   -0.054508	   -0.371115	   -0.437887	   -0.116602	   -0.554489	    0.068183	    0.078260	    0.146443	   -0.016326	   -0.027435	   -0.043762	   -0.007339	    0.009361	    0.002022	   -0.235642	   -0.049429	   -0.285071	   -0.114417	    0.027337	   -0.087080	   -0.231869	   -0.026663	   -0.258532	   -0.212277	   -0.077171	   -0.289448	    0.005081	    0.025394	    0.030475	    0.014401	    0.004431	    0.018832	   -0.008207	   -0.003430	   -0.011637	   -0.021034	   -0.011344	   -0.032378	    0.024263	    0.134519	    0.158782	    0.100647	    0.204815	    0.305462	   -0.011720	    0.076063	    0.064344	   -0.012202	   -0.000361	   -0.012563	    0.004703	    0.001128	    0.005831
     4.650	0	0	    0	    0.068784	    0.112978	    0.181762	   -0.126648	    0.056929	   -0.069719	   -0.094820	    0.166540	    0.071721	    0.031550	    0.257854	    0.289404	   -0.316325	   -0.056249	   -0.372574	   -0.433282	   -0.128677	   -0.561958	    0.064909	    0.075798	    0.140707	   -0.016811	   -0.026700	   -0.043511	   -0.007501	    0.008543	    0.001042	   -0.241542	   -0.054435	   -0.295978	   -0.117505	    0.027603	   -0.089901	   -0.233884	   -0.028579	   -0.262463	   -0.222201	   -0.081908	   -0.304109	    0.003220	    0.022753	    0.025972	    0.009733	    0.007331	    0.017065	   -0.008268	   -0.003401	   -0.011669	   -0.029998	   -0.013504	   -0.043503	    0.014161	    0.133940	    0.148101	    0.087988	    0.202280	    0.290268	   -0.022193	    0.074455	    0.052262	   -0.017179	   -0.002714	   -0.019893	    0.004858	   -0.000250	    0.004607
     4.725	0	0	    0	    0.064057	    0.110610	    0.174667	   -0.129821	    0.056010	   -0.073811	   -0.094662	    0.164940	    0.070277	    0.031634	    0.256987	    0.288621	   -0.317624	   -0.053778	   -0.371402	   -0.429105	   -0.124176	   -0.553281	    0.063219	    0.073889	    0.137108	   -0.017855	   -0.027034	   -0.044889	   -0.009703	    0.007526	   -0.002177	   -0.248638	   -0.053706	   -0.302344	   -0.118414	    0.027213	   -0.091202	   -0.236903	   -0.028003	   -0.264906	   -0.225206	   -0.084188	   -0.309394	    0.000465	    0.022223	    0.022687	    0.007440	    0.007632	    0.015072	   -0.009642	   -0.003121	   -0.012763	   -0.036061	   -0.015740	   -0.051801	    0.006098	    0.132089	    0.138187	    0.077369	    0.199207	    0.276576	   -0.032438	    0.070276	    0.037838	   -0.022753	   -0.003420	   -0.026174	    0.005381	   -0.002085	    0.003296
     4.800	0	0	    0	    0.060477	    0.105591	    0.166068	   -0.131446	    0.054892	   -0.076553	   -0.095066	    0.163259	    0.068193	    0.031499	    0.255358	    0.286857	   -0.316861	   -0.053943	   -0.370804	   -0.424837	   -0.119302	   -0.544139	    0.062330	    0.072094	    0.134424	   -0.018974	   -0.027726	   -0.046700	   -0.013425	    0.008063	   -0.005362	   -0.249878	   -0.052988	   -0.302866	   -0.120332	    0.027456	   -0.092875	   -0.238365	   -0.027481	   -0.265845	   -0.226301	   -0.084807	   -0.311108	   -0.000306	    0.018878	    0.018571	    0.009650	    0.006132	    0.015782	   -0.010622	   -0.003392	   -0.014014	   -0.041948	   -0.013702	   -0.055650	   -0.001503	    0.130236	    0.128733	    0.072055	    0.193554	    0.265608	   -0.042268	    0.069845	    0.027577	   -0.027457	   -0.004330	   -0.031787	    0.001873	   -0.002194	   -0.000321
     4.875	0	0	    0	    0.061290	    0.102093	    0.163383	   -0.135436	    0.055342	   -0.080094	   -0.096302	    0.162721	    0.066419	    0.031616	    0.253932	    0.285549	   -0.317429	   -0.055275	   -0.372704	   -0.425366	   -0.122943	   -0.548308	    0.060595	    0.068221	    0.128816	   -0.018257	   -0.029869	   -0.048126	   -0.015706	    0.005903	   -0.009803	   -0.255800	   -0.050252	   -0.306053	   -0.123287	    0.027376	   -0.095912	   -0.241154	   -0.028881	   -0.270034	   -0.234858	   -0.080417	   -0.315275	   -0.004768	    0.022811	    0.018043	    0.006421	    0.006095	    0.012515	   -0.011661	   -0.003919	   -0.015580	   -0.045826	   -0.013358	   -0.059185	   -0.010928	    0.130547	    0.119619	    0.063001	    0.193513	    0.256514	   -0.049516	    0.066758	    0.017242	   -0.033071	   -0.003923	   -0.036994	    0.000351	   -0.001259	   -0.000908
     4.950	0	0	    0	    0.065379	    0.102450	    0.167828	   -0.132216	    0.053867	   -0.078349	   -0.096401	    0.162327	    0.065926	    0.032172	    0.253991	    0.286163	   -0.316063	   -0.056147	   -0.372209	   -0.424448	   -0.119348	   -0.543796	    0.060367	    0.073123	    0.133489	   -0.013925	   -0.028187	   -0.042112	   -0.015751	    0.005416	   -0.010335	   -0.253090	   -0.050910	   -0.304000	   -0.123570	    0.026471	   -0.097099	   -0.236655	   -0.031309	   -0.267964	   -0.231949	   -0.083789	   -0.315738	    0.005604	    0.016571	    0.022175	    0.012235	    0.003967	    0.016202	   -0.012164	   -0.004132	   -0.016296	   -0.046682	   -0.013727	   -0.060409	   -0.005556	    0.126671	    0.121115	    0.062880	    0.189186	    0.252066	   -0.056314	    0.065883	    0.009569	   -0.033208	   -0.003728	   -0.036936	    0.006875	   -0.003751	    0.003123
     5.025	0	0	    0	    0.065987	    0.102484	    0.168471	   -0.124015	    0.057545	   -0.066469	   -0.093701	    0.162884	    0.069182	    0.033196	    0.253442	    0.286638	   -0.314416	   -0.055270	   -0.369687	   -0.420915	   -0.117721	   -0.538636	    0.062105	    0.075661	    0.137765	   -0.011724	   -0.028172	   -0.039896	   -0.007806	    0.006518	   -0.001288	   -0.237542	   -0.045722	   -0.283264	   -0.116023	    0.026758	   -0.089265	   -0.227660	   -0.027525	   -0.255186	   -0.217492	   -0.078212	   -0.295704	    0.009688	    0.024270	    0.033958	    0.014813	    0.004573	    0.019386	   -0.007606	   -0.004273	   -0.011879	   -0.032568	   -0.010520	   -0.043088	    0.011227	    0.130501	    0.141728	    0.084299	    0.191887	    0.276186	   -0.035157	    0.065744	    0.030587	   -0.017306	   -0.001378	   -0.018684	    0.008880	   -0.002709	    0.006171
     5.100	0	0	    0	    0.066496	    0.100884	    0.167381	   -0.119512	    0.058719	   -0.060792	   -0.091566	    0.163260	    0.071694	    0.035498	    0.251898	    0.287397	   -0.313097	   -0.053690	   -0.366787	   -0.414860	   -0.112463	   -0.527323	    0.063912	    0.072291	    0.136203	   -0.011834	   -0.026901	   -0.038735	   -0.007052	    0.009226	    0.002173	   -0.231517	   -0.039782	   -0.271299	   -0.112989	    0.028656	   -0.084333	   -0.225347	   -0.024747	   -0.250094	   -0.208707	   -0.074752	   -0.283459	    0.010177	    0.024074	    0.034251	    0.014870	    0.004548	    0.019418	   -0.007085	   -0.003169	   -0.010255	   -0.026306	   -0.004936	   -0.031242	    0.015923	    0.132726	    0.148649	    0.092733	    0.194660	    0.287393	   -0.026637	    0.073207	    0.046571	   -0.012421	    0.002413	   -0.010008	    0.007905	   -0.002559	    0.005346
     5.175	0	0	    0	    0.067195	    0.100516	    0.167711	   -0.119670	    0.060936	   -0.058735	   -0.090126	    0.162712	    0.072586	    0.035964	    0.250963	    0.286927	   -0.313008	   -0.053553	   -0.366561	   -0.415926	   -0.112062	   -0.527987	    0.066694	    0.069959	    0.136654	   -0.011688	   -0.026958	   -0.038646	   -0.005207	    0.008876	    0.003669	   -0.232033	   -0.036370	   -0.268403	   -0.113385	    0.029915	   -0.083470	   -0.225770	   -0.024208	   -0.249977	   -0.209063	   -0.069247	   -0.278310	    0.010537	    0.024099	    0.034636	    0.015218	    0.003178	    0.018395	   -0.006236	   -0.003380	   -0.009616	   -0.022385	   -0.003924	   -0.026309	    0.015615	    0.134738	    0.150354	    0.092435	    0.197602	    0.290037	   -0.024296	    0.075655	    0.051358	   -0.010291	    0.003883	   -0.006408	    0.007905	   -0.002116	    0.005789
     5.250	0	0	    0	    0.066007	    0.101355	    0.167362	   -0.120250	    0.061719	   -0.058532	   -0.089405	    0.162246	    0.072841	    0.034901	    0.251453	    0.286354	   -0.310926	   -0.054907	   -0.365833	   -0.417995	   -0.111207	   -0.529202	    0.069404	    0.068290	    0.137694	   -0.011343	   -0.027483	   -0.038827	   -0.007487	    0.010072	    0.002584	   -0.231731	   -0.035712	   -0.267443	   -0.112615	    0.029842	   -0.082773	   -0.224223	   -0.025217	   -0.249440	   -0.209885	   -0.069195	   -0.279080	    0.009778	    0.022919	    0.032697	    0.015805	    0.004997	    0.020802	   -0.007180	   -0.002863	   -0.010043	   -0.026205	   -0.000960	   -0.027165	    0.013584	    0.135801	    0.149385	    0.090532	    0.197907	    0.288439	   -0.027225	    0.075663	    0.048439	   -0.011782	    0.004087	   -0.007694	    0.005041	   -0.000638	    0.004403
     5.325	0	0	    0	    0.065905	    0.099298	    0.165203	   -0.118627	    0.062313	   -0.056314	   -0.089006	    0.163144	    0.074138	    0.035354	    0.252248	    0.287602	   -0.311260	   -0.052040	   -0.363300	   -0.408890	   -0.111130	   -0.520019	    0.070974	    0.064243	    0.135217	   -0.011936	   -0.027442	   -0.039378	   -0.007184	    0.010407	    0.003223	   -0.228227	   -0.033103	   -0.261331	   -0.111789	    0.031235	   -0.080554	   -0.224982	   -0.022987	   -0.247969	   -0.207544	   -0.067634	   -0.275178	    0.013051	    0.020671	    0.033722	    0.014546	    0.005812	    0.020359	   -0.007508	   -0.002985	   -0.010493	   -0.023200	   -0.000284	   -0.023484	    0.011111	    0.135818	    0.146929	    0.089299	    0.196829	    0.286129	   -0.028323	    0.076946	    0.048623	   -0.011953	    0.006751	   -0.005202	    0.007681	   -0.003024	    0.004657
     5.400	0	0	    0	    0.063708	    0.099026	    0.162734	   -0.121051	    0.063066	   -0.057984	   -0.089697	    0.163143	    0.073446	    0.034594	    0.250638	    0.285233	   -0.309775	   -0.052173	   -0.361949	   -0.412749	   -0.107672	   -0.520420	    0.062188	    0.070840	    0.133028	   -0.013186	   -0.027412	   -0.040599	   -0.008850	    0.010296	    0.001446	   -0.234435	   -0.030000	   -0.264434	   -0.113319	    0.031536	   -0.081783	   -0.226746	   -0.022785	   -0.249531	   -0.209906	   -0.066500	   -0.276406	    0.007763	    0.022431	    0.030194	    0.009936	    0.009212	    0.019148	   -0.008619	   -0.003167	   -0.011786	   -0.025565	   -0.000003	   -0.025568	    0.004705	    0.136853	    0.141558	    0.082377	    0.198512	    0.280890	   -0.033309	    0.076855	    0.043546	   -0.013472	    0.005560	   -0.007912	    0.005588	   -0.002112	    0.003476
     5.475	0	0	    0	    0.061221	    0.098423	    0.159644	   -0.123429	    0.063817	   -0.059612	   -0.089449	    0.162115	    0.072666	    0.034806	    0.250465	    0.285271	   -0.310339	   -0.051254	   -0.361592	   -0.408345	   -0.105798	   -0.514143	    0.063115	    0.066898	    0.130013	   -0.013957	   -0.027146	   -0.041103	   -0.011498	    0.010216	   -0.001282	   -0.235636	   -0.029247	   -0.264883	   -0.114049	    0.032097	   -0.081952	   -0.228617	   -0.022954	   -0.251571	   -0.211309	   -0.065882	   -0.277191	    0.003465	    0.023144	    0.026609	    0.013533	    0.005293	    0.018825	   -0.009176	   -0.003462	   -0.012638	   -0.028156	    0.001488	   -0.026667	   -0.000028	    0.134221	    0.134193	    0.077332	    0.195572	    0.272903	   -0.040607	    0.077611	    0.037003	   -0.017269	    0.004793	   -0.012477	    0.006439	   -0.004496	    0.001943
     5.550	0	0	    0	    0.060024	    0.096852	    0.156876	   -0.124660	    0.062604	   -0.062057	   -0.089075	    0.161352	    0.072277	    0.033575	    0.250165	    0.283739	   -0.311380	   -0.049739	   -0.361120	   -0.407051	   -0.107825	   -0.514876	    0.068457	    0.063790	    0.132247	   -0.015299	   -0.027533	   -0.042831	   -0.013976	    0.011329	   -0.002647	   -0.237847	   -0.029553	   -0.267400	   -0.115356	    0.032152	   -0.083204	   -0.231596	   -0.022414	   -0.254010	   -0.215864	   -0.065364	   -0.281228	    0.007020	    0.018076	    0.025097	    0.013425	    0.003389	    0.016814	   -0.009645	   -0.002978	   -0.012624	   -0.031297	    0.002231	   -0.029066	   -0.006898	    0.134670	    0.127772	    0.069187	    0.196156	    0.265343	   -0.046552	    0.076376	    0.029824	   -0.020638	    0.004285	   -0.016353	    0.005405	   -0.004981	    0.000424
     5.625	0	0	    0	    0.059171	    0.096722	    0.155893	   -0.128482	    0.063827	   -0.064655	   -0.091808	    0.162378	    0.070571	    0.033165	    0.249415	    0.282580	   -0.311132	   -0.051200	   -0.362332	   -0.410317	   -0.104365	   -0.514682	    0.065939	    0.061896	    0.127834	   -0.015382	   -0.027714	   -0.043096	   -0.014756	    0.009684	   -0.005072	   -0.243490	   -0.028291	   -0.271781	   -0.118323	    0.032578	   -0.085744	   -0.234118	   -0.023264	   -0.257381	   -0.219158	   -0.065676	   -0.284834	    0.004607	    0.017264	    0.021871	    0.009688	    0.005605	    0.015292	   -0.010231	   -0.003262	   -0.013492	   -0.036100	    0.003288	   -0.032812	   -0.011428	    0.133626	    0.122197	    0.064074	    0.194928	    0.259002	   -0.052831	    0.075055	    0.022224	   -0.024983	    0.004489	   -0.020495	    0.001635	   -0.003017	   -0.001382
     5.700	0	0	    0	    0.056861	    0.096510	    0.153370	   -0.131825	    0.064285	   -0.067539	   -0.094306	    0.163050	    0.068744	    0.033431	    0.247551	    0.280982	   -0.313243	   -0.049356	   -0.362599	   -0.411695	   -0.102488	   -0.514183	    0.059300	    0.066633	    0.125933	   -0.017435	   -0.027487	   -0.044922	   -0.018152	    0.011270	   -0.006883	   -0.247949	   -0.027431	   -0.275380	   -0.120078	    0.032454	   -0.087624	   -0.237812	   -0.021826	   -0.259638	   -0.222738	   -0.065989	   -0.288727	   -0.000837	    0.022090	    0.021253	    0.010263	    0.005476	    0.015740	   -0.011551	   -0.002981	   -0.014531	   -0.040756	    0.004958	   -0.035799	   -0.018051	    0.133650	    0.115599	    0.057990	    0.194336	    0.252326	   -0.062410	    0.077281	    0.014871	   -0.030903	    0.006610	   -0.024293	    0.001857	   -0.002244	   -0.000387
     5.775	0	0	    0	    0.059057	    0.096220	    0.155277	   -0.133666	    0.063514	   -0.070151	   -0.095238	    0.163252	    0.068014	    0.032479	    0.247997	    0.280476	   -0.309934	   -0.050846	   -0.360780	   -0.412055	   -0.104256	   -0.516311	    0.058364	    0.068129	    0.126493	   -0.013255	   -0.028035	   -0.041290	   -0.019263	    0.010036	   -0.009227	   -0.251097	   -0.028192	   -0.279289	   -0.123327	    0.032914	   -0.090413	   -0.234978	   -0.024938	   -0.259916	   -0.227973	   -0.066328	   -0.294302	   -0.002549	    0.018649	    0.016100	    0.008789	    0.005658	    0.014446	   -0.012380	   -0.002697	   -0.015077	   -0.042597	    0.001812	   -0.040785	   -0.020485	    0.131937	    0.111452	    0.053353	    0.193269	    0.246622	   -0.068709	    0.076127	    0.007418	   -0.034102	    0.003529	   -0.030573	    0.002491	   -0.005947	   -0.003457
     5.850	0	0	    0	    0.062918	    0.096413	    0.159331	   -0.122250	    0.062748	   -0.059502	   -0.092128	    0.161613	    0.069485	    0.035089	    0.246121	    0.281209	   -0.310122	   -0.048800	   -0.358922	   -0.402475	   -0.102369	   -0.504844	    0.060221	    0.069430	    0.129651	   -0.009385	   -0.027601	   -0.036986	   -0.012828	    0.011427	   -0.001401	   -0.233742	   -0.027021	   -0.260763	   -0.115050	    0.032177	   -0.082872	   -0.226027	   -0.021426	   -0.247454	   -0.211377	   -0.067197	   -0.278574	    0.010964	    0.019413	    0.030378	    0.015409	    0.003407	    0.018817	   -0.007196	   -0.003793	   -0.010989	   -0.029808	    0.001818	   -0.027990	   -0.000476	    0.131579	    0.131103	    0.076725	    0.188890	    0.265615	   -0.053277	    0.071836	    0.018559	   -0.020076	    0.004123	   -0.015953	    0.007815	   -0.004128	    0.003686
     5.925	0	0	    0	    0.065255	    0.095907	    0.161162	   -0.119194	    0.066493	   -0.052701	   -0.089401	    0.162492	    0.073091	    0.035837	    0.247871	    0.283708	   -0.309241	   -0.048339	   -0.357581	   -0.400731	   -0.106004	   -0.506735	    0.070726	    0.062396	    0.133122	   -0.008119	   -0.026923	   -0.035042	   -0.008796	    0.012974	    0.004178	   -0.228347	   -0.021275	   -0.249622	   -0.111555	    0.034119	   -0.077437	   -0.222571	   -0.019328	   -0.241899	   -0.207658	   -0.059293	   -0.266952	    0.012885	    0.020257	    0.033142	    0.014805	    0.005193	    0.019998	   -0.004838	   -0.002181	   -0.007019	   -0.021922	    0.008708	   -0.013215	    0.006372	    0.138301	    0.144673	    0.086102	    0.198597	    0.284699	   -0.036857	    0.079281	    0.042424	   -0.011776	    0.008601	   -0.003175	    0.008806	   -0.004231	    0.004575
     6.000	0	0	    0	    0.064411	    0.095319	    0.159730	   -0.117269	    0.068017	   -0.049252	   -0.088260	    0.163793	    0.075533	    0.036559	    0.246720	    0.283278	   -0.306577	   -0.048745	   -0.355322	   -0.402238	   -0.100851	   -0.503089	    0.067571	    0.070680	    0.138251	   -0.008452	   -0.026796	   -0.035248	   -0.006450	    0.013418	    0.006968	   -0.224950	   -0.019241	   -0.244191	   -0.108875	    0.034406	   -0.074468	   -0.219466	   -0.019320	   -0.238786	   -0.202460	   -0.058957	   -0.261417	    0.011783	    0.024592	    0.036375	    0.017825	    0.003564	    0.021389	   -0.002853	   -0.001916	   -0.004770	   -0.016479	    0.008108	   -0.008371	    0.008247	    0.140693	    0.148939	    0.090580	    0.200273	    0.290853	   -0.031387	    0.081828	    0.050442	   -0.008322	    0.010655	    0.002333	    0.009221	   -0.003844	    0.005377
     6.075	0	0	    0	    0.064635	    0.093165	    0.157799	   -0.116622	    0.068248	   -0.048374	   -0.087996	    0.164359	    0.076363	    0.037656	    0.245994	    0.283650	   -0.305192	   -0.048196	   -0.353389	   -0.401463	   -0.098469	   -0.499932	    0.062899	    0.071797	    0.134696	   -0.007059	   -0.027332	   -0.034391	   -0.006720	    0.014109	    0.007389	   -0.224655	   -0.016668	   -0.241323	   -0.109618	    0.036374	   -0.073243	   -0.218032	   -0.018860	   -0.236892	   -0.203566	   -0.055229	   -0.258795	    0.013893	    0.020836	    0.034729	    0.015038	    0.006234	    0.021273	   -0.003168	   -0.000242	   -0.003410	   -0.017277	    0.011923	   -0.005354	    0.006845	    0.139280	    0.146125	    0.088941	    0.200639	    0.289580	   -0.034605	    0.084203	    0.049598	   -0.010890	    0.013201	    0.002311	    0.009051	   -0.002834	    0.006217
     6.150	0	0	    0	    0.063418	    0.091193	    0.154612	   -0.115272	    0.067545	   -0.047726	   -0.086345	    0.161817	    0.075472	    0.038811	    0.244110	    0.282921	   -0.305199	   -0.044895	   -0.350094	   -0.396751	   -0.095314	   -0.492065	    0.065215	    0.067114	    0.132329	   -0.008352	   -0.025822	   -0.034174	   -0.006753	    0.014003	    0.007250	   -0.220815	   -0.017529	   -0.238344	   -0.107299	    0.036671	   -0.070628	   -0.217624	   -0.016223	   -0.233847	   -0.199775	   -0.056301	   -0.256076	    0.009443	    0.024368	    0.033811	    0.014937	    0.005655	    0.020592	   -0.002880	   -0.000331	   -0.003211	   -0.014758	    0.010939	   -0.003819	    0.005154	    0.139464	    0.144618	    0.088911	    0.199506	    0.288417	   -0.034019	    0.084040	    0.050021	   -0.007204	    0.009228	    0.002024	    0.009722	   -0.005408	    0.004314
     6.225	0	0	    0	    0.060910	    0.091310	    0.152220	   -0.116977	    0.067516	   -0.049462	   -0.085653	    0.161603	    0.075951	    0.036769	    0.245926	    0.282695	   -0.302746	   -0.045363	   -0.348108	   -0.398857	   -0.096881	   -0.495738	    0.063384	    0.072260	    0.135644	   -0.008628	   -0.026572	   -0.035200	   -0.008659	    0.014279	    0.005619	   -0.224687	   -0.016170	   -0.240857	   -0.107232	    0.036061	   -0.071171	   -0.216973	   -0.015682	   -0.232655	   -0.204602	   -0.051991	   -0.256593	    0.008163	    0.025521	    0.033684	    0.012723	    0.008820	    0.021544	   -0.003540	   -0.000227	   -0.003766	   -0.018640	    0.016399	   -0.002241	    0.001653	    0.140291	    0.141944	    0.085922	    0.201095	    0.287016	   -0.039087	    0.088067	    0.048980	   -0.011925	    0.013360	    0.001435	    0.007912	   -0.002691	    0.005221
     6.300	0	0	    0	    0.058756	    0.090148	    0.148904	   -0.117947	    0.066430	   -0.051517	   -0.086539	    0.161510	    0.074971	    0.036644	    0.243722	    0.280366	   -0.304031	   -0.042799	   -0.346830	   -0.394678	   -0.093246	   -0.487925	    0.063367	    0.068338	    0.131705	   -0.009882	   -0.025535	   -0.035417	   -0.009441	    0.013164	    0.003723	   -0.227195	   -0.015835	   -0.243030	   -0.107824	    0.036784	   -0.071039	   -0.218753	   -0.014601	   -0.233354	   -0.204632	   -0.053459	   -0.258092	    0.007827	    0.023702	    0.031528	    0.013879	    0.006080	    0.019959	   -0.003588	    0.000092	   -0.003496	   -0.020143	    0.013972	   -0.006171	   -0.003925	    0.138377	    0.134452	    0.079759	    0.199644	    0.279403	   -0.044111	    0.086932	    0.042821	   -0.016370	    0.013709	   -0.002661	    0.005229	   -0.000713	    0.004516
     6.375	0	0	    0	    0.054344	    0.090542	    0.144886	   -0.120447	    0.065918	   -0.054528	   -0.086581	    0.160403	    0.073822	    0.034723	    0.244115	    0.278837	   -0.301843	   -0.039669	   -0.341512	   -0.391045	   -0.092982	   -0.484027	    0.063407	    0.065081	    0.128488	   -0.010744	   -0.025161	   -0.035906	   -0.012314	    0.013612	    0.001298	   -0.229418	   -0.016355	   -0.245773	   -0.109278	    0.037543	   -0.071735	   -0.219660	   -0.012621	   -0.232280	   -0.206750	   -0.053373	   -0.260122	    0.004806	    0.022929	    0.027735	    0.011122	    0.007908	    0.019030	   -0.003966	    0.000568	   -0.003398	   -0.024756	    0.014582	   -0.010174	   -0.009530	    0.136661	    0.127131	    0.074500	    0.198433	    0.272933	   -0.050389	    0.087251	    0.036862	   -0.020347	    0.012281	   -0.008066	    0.006827	   -0.004028	    0.002800
     6.450	0	0	    0	    0.054788	    0.088302	    0.143089	   -0.121993	    0.063772	   -0.058222	   -0.086714	    0.158602	    0.071888	    0.036123	    0.242093	    0.278216	   -0.302838	   -0.040966	   -0.343803	   -0.392556	   -0.088913	   -0.481468	    0.060830	    0.062976	    0.123807	   -0.011296	   -0.025349	   -0.036645	   -0.013813	    0.012543	   -0.001270	   -0.232796	   -0.017069	   -0.249866	   -0.111019	    0.037809	   -0.073209	   -0.222810	   -0.013254	   -0.236064	   -0.209110	   -0.050533	   -0.259643	    0.003748	    0.019517	    0.023266	    0.013799	    0.004056	    0.017855	   -0.004638	    0.000895	   -0.003743	   -0.028532	    0.015299	   -0.013232	   -0.014643	    0.135320	    0.120677	    0.068665	    0.196930	    0.265595	   -0.055487	    0.084011	    0.028524	   -0.024831	    0.011922	   -0.012909	    0.004366	   -0.002529	    0.001837
     6.525	0	0	    0	    0.052985	    0.088577	    0.141563	   -0.125799	    0.063370	   -0.062430	   -0.088416	    0.158615	    0.070199	    0.034498	    0.242648	    0.277146	   -0.302943	   -0.040415	   -0.343358	   -0.397495	   -0.088753	   -0.486248	    0.066362	    0.057183	    0.123544	   -0.012541	   -0.025837	   -0.038378	   -0.015880	    0.011730	   -0.004150	   -0.237867	   -0.018801	   -0.256669	   -0.113386	    0.037594	   -0.075792	   -0.223682	   -0.014033	   -0.237715	   -0.213989	   -0.050875	   -0.264864	   -0.000245	    0.020606	    0.020362	    0.010840	    0.005347	    0.016187	   -0.005106	    0.001288	   -0.003818	   -0.034309	    0.015553	   -0.018757	   -0.018901	    0.134833	    0.115932	    0.063643	    0.197191	    0.260834	   -0.061799	    0.083630	    0.021832	   -0.026857	    0.008493	   -0.018364	    0.004300	   -0.004044	    0.000256
     6.600	0	0	    0	    0.049777	    0.087325	    0.137102	   -0.128457	    0.063322	   -0.065135	   -0.088724	    0.157704	    0.068981	    0.033404	    0.241778	    0.275182	   -0.303204	   -0.038005	   -0.341209	   -0.390631	   -0.088789	   -0.479420	    0.057797	    0.063225	    0.121022	   -0.013885	   -0.025521	   -0.039405	   -0.019007	    0.013062	   -0.005946	   -0.241939	   -0.018417	   -0.260356	   -0.114511	    0.038134	   -0.076377	   -0.226359	   -0.012672	   -0.239031	   -0.216754	   -0.051679	   -0.268432	   -0.002715	    0.022507	    0.019793	    0.008491	    0.006802	    0.015292	   -0.005488	    0.002178	   -0.003310	   -0.036989	    0.013134	   -0.023856	   -0.026964	    0.134860	    0.107896	    0.056124	    0.195732	    0.251855	   -0.068965	    0.082511	    0.013547	   -0.031590	    0.008833	   -0.022757	    0.002598	   -0.003291	   -0.000692
     6.675	0	0	    0	    0.048284	    0.086748	    0.135033	   -0.131676	    0.062748	   -0.068928	   -0.090188	    0.157386	    0.067198	    0.031887	    0.241295	    0.273182	   -0.301353	   -0.037729	   -0.339082	   -0.391176	   -0.087335	   -0.478511	    0.054528	    0.064840	    0.119367	   -0.013675	   -0.026663	   -0.040338	   -0.020818	    0.011896	   -0.008922	   -0.245565	   -0.019663	   -0.265228	   -0.117547	    0.039073	   -0.078475	   -0.227800	   -0.012286	   -0.240086	   -0.221390	   -0.050031	   -0.271421	   -0.007102	    0.020412	    0.013310	    0.008163	    0.005805	    0.013969	   -0.006242	    0.002598	   -0.003644	   -0.041230	    0.013734	   -0.027496	   -0.031911	    0.133032	    0.101120	    0.050742	    0.194446	    0.245188	   -0.077452	    0.083894	    0.006442	   -0.038120	    0.008448	   -0.029673	    0.000821	   -0.003972	   -0.003150
     6.750	0	0	    0	    0.054557	    0.085266	    0.139822	   -0.125746	    0.059995	   -0.065750	   -0.088286	    0.154404	    0.066119	    0.034493	    0.238897	    0.273391	   -0.301724	   -0.034089	   -0.335813	   -0.385683	   -0.086125	   -0.471808	    0.059307	    0.062384	    0.121691	   -0.007833	   -0.026521	   -0.034354	   -0.018425	    0.010146	   -0.008279	   -0.237085	   -0.022107	   -0.259192	   -0.113818	    0.037462	   -0.076356	   -0.219250	   -0.012161	   -0.231411	   -0.215783	   -0.053166	   -0.268949	    0.005388	    0.016811	    0.022198	    0.012425	    0.003994	    0.016419	   -0.004637	    0.001498	   -0.003139	   -0.036567	    0.010088	   -0.026480	   -0.019801	    0.129693	    0.109891	    0.059143	    0.188531	    0.247675	   -0.076885	    0.079241	    0.002357	   -0.034129	    0.006794	   -0.027336	    0.006832	   -0.004158	    0.002675
     6.825	0	0	    0	    0.056829	    0.085933	    0.142761	   -0.118104	    0.063532	   -0.054572	   -0.084890	    0.155272	    0.070382	    0.036726	    0.238647	    0.275373	   -0.300194	   -0.035368	   -0.335563	   -0.386060	   -0.082718	   -0.468778	    0.056773	    0.068359	    0.125132	   -0.006966	   -0.024597	   -0.031563	   -0.012776	    0.013228	    0.000452	   -0.225294	   -0.016369	   -0.241663	   -0.107341	    0.039190	   -0.068151	   -0.214205	   -0.010126	   -0.224331	   -0.202160	   -0.046675	   -0.248834	    0.010075	    0.019903	    0.029978	    0.012328	    0.006497	    0.018825	   -0.000531	    0.002910	    0.002378	   -0.024201	    0.015323	   -0.008878	   -0.004484	    0.137092	    0.132608	    0.081137	    0.196424	    0.277560	   -0.052283	    0.084045	    0.031762	   -0.019400	    0.010051	   -0.009349	    0.005194	   -0.002010	    0.003184
     6.900	0	0	    0	    0.057739	    0.086663	    0.144402	   -0.114593	    0.063716	   -0.050878	   -0.082464	    0.156570	    0.074106	    0.036669	    0.239467	    0.276135	   -0.297815	   -0.036205	   -0.334020	   -0.382817	   -0.083047	   -0.465864	    0.063550	    0.064857	    0.128407	   -0.006018	   -0.024086	   -0.030104	   -0.009319	    0.012611	    0.003292	   -0.220535	   -0.015699	   -0.236234	   -0.104528	    0.040234	   -0.064295	   -0.211090	   -0.010182	   -0.221272	   -0.197241	   -0.044429	   -0.241669	    0.010759	    0.021578	    0.032337	    0.012401	    0.006983	    0.019384	    0.000808	    0.003436	    0.004244	   -0.020956	    0.017762	   -0.003194	   -0.000152	    0.138685	    0.138533	    0.086780	    0.199245	    0.286025	   -0.044703	    0.087831	    0.043128	   -0.015146	    0.013996	   -0.001149	    0.010387	   -0.004071	    0.006315
     6.975	0	0	    0	    0.056018	    0.085776	    0.141794	   -0.114545	    0.064770	   -0.049775	   -0.081708	    0.157297	    0.075589	    0.036638	    0.239675	    0.276314	   -0.295295	   -0.031993	   -0.327288	   -0.379049	   -0.079833	   -0.458882	    0.059158	    0.065403	    0.124561	   -0.006033	   -0.024324	   -0.030358	   -0.009372	    0.013533	    0.004161	   -0.219095	   -0.014480	   -0.233576	   -0.102498	    0.041148	   -0.061351	   -0.209016	   -0.007436	   -0.216452	   -0.194598	   -0.041268	   -0.235866	    0.009773	    0.021482	    0.031255	    0.015015	    0.003979	    0.018993	    0.000384	    0.004652	    0.005036	   -0.020486	    0.019053	   -0.001434	   -0.001250	    0.139472	    0.138222	    0.084191	    0.200925	    0.285117	   -0.044710	    0.090577	    0.045867	   -0.014092	    0.014978	    0.000886	    0.007115	   -0.002355	    0.004760
     7.050	0	0	    0	    0.055900	    0.087245	    0.143145	   -0.113270	    0.063664	   -0.049606	   -0.080685	    0.155982	    0.075297	    0.036115	    0.241843	    0.277958	   -0.295511	   -0.032700	   -0.328212	   -0.379124	   -0.076731	   -0.455855	    0.066628	    0.058585	    0.125213	   -0.005961	   -0.023862	   -0.029823	   -0.008770	    0.012466	    0.003696	   -0.218031	   -0.014757	   -0.232789	   -0.101868	    0.041366	   -0.060502	   -0.208132	   -0.006984	   -0.215116	   -0.193567	   -0.040137	   -0.233704	    0.012861	    0.020110	    0.032972	    0.013085	    0.005678	    0.018764	    0.001380	    0.003442	    0.004822	   -0.018389	    0.017127	   -0.001262	    0.000302	    0.139920	    0.140222	    0.087711	    0.200194	    0.287906	   -0.041977	    0.087560	    0.045583	   -0.015116	    0.014730	   -0.000386	    0.008277	   -0.002579	    0.005697
     7.125	0	0	    0	    0.054403	    0.085463	    0.139866	   -0.111798	    0.062833	   -0.048965	   -0.079521	    0.156414	    0.076894	    0.036943	    0.239534	    0.276478	   -0.292283	   -0.028849	   -0.321131	   -0.371411	   -0.080434	   -0.451845	    0.069408	    0.055484	    0.124891	   -0.006053	   -0.024301	   -0.030354	   -0.008879	    0.013504	    0.004625	   -0.215980	   -0.015361	   -0.231341	   -0.099695	    0.042058	   -0.057637	   -0.206197	   -0.005618	   -0.211815	   -0.193369	   -0.039131	   -0.232500	    0.012666	    0.018731	    0.031397	    0.016185	    0.003302	    0.019487	    0.001601	    0.003768	    0.005370	   -0.018811	    0.019078	    0.000268	   -0.001764	    0.139724	    0.137960	    0.086160	    0.199797	    0.285957	   -0.043647	    0.090820	    0.047173	   -0.015066	    0.014738	   -0.000327	    0.010711	   -0.005824	    0.004887
     7.200	0	0	    0	    0.053170	    0.083027	    0.136196	   -0.113219	    0.062226	   -0.050993	   -0.079043	    0.154913	    0.075870	    0.037306	    0.238573	    0.275879	   -0.289176	   -0.026419	   -0.315595	   -0.370142	   -0.072850	   -0.442991	    0.060582	    0.058789	    0.119371	   -0.007369	   -0.024471	   -0.031839	   -0.010733	    0.012745	    0.002013	   -0.218728	   -0.014461	   -0.233188	   -0.100756	    0.042338	   -0.058418	   -0.206221	   -0.004162	   -0.210383	   -0.192435	   -0.037542	   -0.229976	    0.007927	    0.021409	    0.029335	    0.012993	    0.004689	    0.017682	    0.000517	    0.004041	    0.004558	   -0.019742	    0.017372	   -0.002370	   -0.005641	    0.138359	    0.132719	    0.081412	    0.198622	    0.280035	   -0.049056	    0.092039	    0.042983	   -0.017749	    0.014423	   -0.003326	    0.008762	   -0.004637	    0.004126
     7.275	0	0	    0	    0.051134	    0.084301	    0.135435	   -0.114901	    0.061852	   -0.053049	   -0.078265	    0.153165	    0.074901	    0.038981	    0.237284	    0.276266	   -0.289245	   -0.025126	   -0.314370	   -0.366103	   -0.068493	   -0.434596	    0.059381	    0.060215	    0.119595	   -0.008383	   -0.023910	   -0.032293	   -0.012614	    0.012289	   -0.000324	   -0.221982	   -0.014359	   -0.236341	   -0.102151	    0.042247	   -0.059904	   -0.207745	   -0.003156	   -0.210900	   -0.192988	   -0.035751	   -0.228739	    0.008735	    0.016608	    0.025344	    0.011203	    0.006433	    0.017637	   -0.000131	    0.003519	    0.003387	   -0.021566	    0.015122	   -0.006444	   -0.009412	    0.136832	    0.127420	    0.077619	    0.197880	    0.275499	   -0.052887	    0.089605	    0.036718	   -0.021641	    0.014120	   -0.007521	    0.006106	   -0.003499	    0.002607
     7.350	0	0	    0	    0.049507	    0.083016	    0.132523	   -0.116823	    0.061040	   -0.055782	   -0.079178	    0.153391	    0.074213	    0.038087	    0.236429	    0.274516	   -0.288202	   -0.022449	   -0.310651	   -0.364895	   -0.069606	   -0.434501	    0.060904	    0.053098	    0.114002	   -0.008869	   -0.024654	   -0.033523	   -0.014962	    0.012279	   -0.002683	   -0.224338	   -0.016968	   -0.241306	   -0.103359	    0.042003	   -0.061356	   -0.208732	   -0.002571	   -0.211303	   -0.196185	   -0.036633	   -0.232818	    0.003469	    0.018508	    0.021978	    0.012451	    0.002147	    0.014598	   -0.001226	    0.003791	    0.002564	   -0.026277	    0.016108	   -0.010169	   -0.014380	    0.136382	    0.122002	    0.072025	    0.196804	    0.268829	   -0.058786	    0.089041	    0.030254	   -0.025061	    0.012706	   -0.012356	    0.005981	   -0.005595	    0.000386
     7.425	0	0	    0	    0.047179	    0.082300	    0.129479	   -0.120112	    0.061375	   -0.058737	   -0.079875	    0.152710	    0.072835	    0.036918	    0.236147	    0.273065	   -0.286096	   -0.021254	   -0.307349	   -0.361166	   -0.069076	   -0.430242	    0.055785	    0.058419	    0.114204	   -0.010960	   -0.024253	   -0.035213	   -0.016512	    0.011476	   -0.005036	   -0.227496	   -0.016803	   -0.244299	   -0.104310	    0.042108	   -0.062202	   -0.209176	   -0.002514	   -0.211690	   -0.198891	   -0.034647	   -0.233538	    0.000621	    0.020245	    0.020866	    0.012220	    0.003055	    0.015274	   -0.001741	    0.003267	    0.001526	   -0.030829	    0.017399	   -0.013430	   -0.019339	    0.135555	    0.116215	    0.066296	    0.195453	    0.261748	   -0.065318	    0.088138	    0.022819	   -0.029076	    0.012893	   -0.016183	    0.002758	   -0.004032	   -0.001273
     7.500	0	0	    0	    0.043553	    0.082505	    0.126058	   -0.121783	    0.060938	   -0.060845	   -0.081260	    0.153514	    0.072254	    0.036412	    0.237126	    0.273538	   -0.286817	   -0.020149	   -0.306966	   -0.361802	   -0.061822	   -0.423624	    0.056580	    0.056689	    0.113269	   -0.013038	   -0.024495	   -0.037533	   -0.018545	    0.011372	   -0.007172	   -0.229809	   -0.016423	   -0.246233	   -0.107116	    0.042631	   -0.064484	   -0.212180	   -0.001864	   -0.214043	   -0.199579	   -0.034277	   -0.233856	   -0.001108	    0.016825	    0.015718	    0.005852	    0.009192	    0.015044	   -0.002920	    0.003265	    0.000345	   -0.033834	    0.016673	   -0.017161	   -0.025598	    0.134686	    0.109088	    0.059676	    0.194984	    0.254660	   -0.070270	    0.086454	    0.016183	   -0.032372	    0.011638	   -0.020733	    0.001052	   -0.003023	   -0.001971
     7.575	0	0	    0	    0.043917	    0.079441	    0.123358	   -0.125482	    0.061060	   -0.064422	   -0.080677	    0.151507	    0.070830	    0.034490	    0.236566	    0.271055	   -0.283209	   -0.018232	   -0.301442	   -0.359641	   -0.063198	   -0.422839	    0.054870	    0.054428	    0.109298	   -0.012004	   -0.025759	   -0.037763	   -0.020872	    0.010445	   -0.010427	   -0.234030	   -0.017424	   -0.251454	   -0.109228	    0.042594	   -0.066634	   -0.212235	   -0.001135	   -0.213370	   -0.203701	   -0.034944	   -0.238645	   -0.003392	    0.015846	    0.012454	    0.007172	    0.005080	    0.012253	   -0.003776	    0.003079	   -0.000697	   -0.037542	    0.015841	   -0.021701	   -0.030378	    0.132700	    0.102323	    0.054523	    0.192640	    0.247163	   -0.076738	    0.085612	    0.008874	   -0.038283	    0.011020	   -0.027263	    0.002317	   -0.005696	   -0.003379
     7.650	0	0	    0	    0.048462	    0.080534	    0.128996	   -0.117363	    0.057691	   -0.059672	   -0.079383	    0.150233	    0.070850	    0.037565	    0.234076	    0.271641	   -0.282268	   -0.016522	   -0.298790	   -0.353406	   -0.061400	   -0.414805	    0.069419	    0.044257	    0.113676	   -0.006620	   -0.025290	   -0.031909	   -0.018123	    0.009278	   -0.008845	   -0.224046	   -0.019827	   -0.243873	   -0.105344	    0.041034	   -0.064310	   -0.202905	   -0.001515	   -0.204420	   -0.197270	   -0.035481	   -0.232751	    0.007744	    0.012900	    0.020644	    0.012623	    0.003607	    0.016230	   -0.001794	    0.001648	   -0.000145	   -0.033280	    0.014187	   -0.019093	   -0.014253	    0.129143	    0.114890	    0.068794	    0.187500	    0.256293	   -0.072468	    0.080055	    0.007588	   -0.030758	    0.007262	   -0.023496	    0.007301	   -0.006818	    0.000483
     7.725	0	0	    0	    0.050342	    0.080190	    0.130532	   -0.111194	    0.061829	   -0.049365	   -0.076161	    0.152151	    0.075990	    0.036777	    0.236233	    0.273010	   -0.279078	   -0.013879	   -0.292957	   -0.347551	   -0.060142	   -0.407692	    0.058714	    0.060320	    0.119034	   -0.006491	   -0.023745	   -0.030236	   -0.012666	    0.011661	   -0.001005	   -0.212375	   -0.014895	   -0.227270	   -0.099010	    0.042751	   -0.056260	   -0.197797	    0.001048	   -0.196749	   -0.184404	   -0.029904	   -0.214308	    0.010873	    0.017678	    0.028551	    0.011756	    0.004672	    0.016428	    0.001636	    0.002738	    0.004374	   -0.021059	    0.017558	   -0.003502	   -0.004004	    0.135612	    0.131608	    0.082517	    0.194786	    0.277303	   -0.051525	    0.087015	    0.035490	   -0.019201	    0.012718	   -0.006483	    0.007620	   -0.004363	    0.003257
     7.800	0	0	    0	    0.048195	    0.081823	    0.130017	   -0.109564	    0.062671	   -0.046893	   -0.073421	    0.151722	    0.078301	    0.037157	    0.235835	    0.272992	   -0.274819	   -0.012409	   -0.287228	   -0.348450	   -0.055221	   -0.403671	    0.058164	    0.062042	    0.120206	   -0.006924	   -0.023795	   -0.030719	   -0.011180	    0.011823	    0.000642	   -0.210569	   -0.012928	   -0.223496	   -0.095863	    0.042734	   -0.053129	   -0.196162	    0.003092	   -0.193070	   -0.179740	   -0.026333	   -0.206073	    0.008444	    0.021847	    0.030291	    0.012135	    0.004930	    0.017065	    0.002242	    0.002875	    0.005117	   -0.017629	    0.018363	    0.000734	   -0.002323	    0.137079	    0.134757	    0.083489	    0.197947	    0.281436	   -0.044326	    0.088105	    0.043779	   -0.015559	    0.013510	   -0.002049	    0.006538	   -0.001866	    0.004672
     7.875	0	0	    0	    0.047610	    0.080266	    0.127876	   -0.108993	    0.062606	   -0.046387	   -0.073237	    0.151768	    0.078531	    0.039589	    0.232999	    0.272588	   -0.273511	   -0.009631	   -0.283142	   -0.344118	   -0.052437	   -0.396555	    0.058029	    0.059493	    0.117522	   -0.006736	   -0.025101	   -0.031837	   -0.012874	    0.012573	   -0.000301	   -0.210650	   -0.012037	   -0.222687	   -0.095800	    0.043298	   -0.052502	   -0.194902	    0.003950	   -0.190952	   -0.178778	   -0.023769	   -0.202547	    0.008630	    0.020971	    0.029601	    0.011473	    0.005195	    0.016668	    0.001509	    0.003236	    0.004746	   -0.019907	    0.021056	    0.001148	   -0.003739	    0.136179	    0.132440	    0.081797	    0.196254	    0.278052	   -0.047349	    0.089969	    0.042620	   -0.018108	    0.015920	   -0.002188	    0.005579	   -0.001538	    0.004041
     7.950	0	0	    0	    0.047953	    0.078213	    0.126166	   -0.106607	    0.061341	   -0.045267	   -0.069950	    0.149999	    0.080049	    0.039047	    0.233600	    0.272647	   -0.271573	   -0.004773	   -0.276346	   -0.336083	   -0.053407	   -0.389490	    0.065881	    0.051023	    0.116904	   -0.007219	   -0.025087	   -0.032306	   -0.012430	    0.012140	   -0.000290	   -0.208012	   -0.012732	   -0.220744	   -0.094495	    0.043481	   -0.051014	   -0.193513	    0.005762	   -0.187752	   -0.176024	   -0.023714	   -0.199738	    0.011896	    0.016637	    0.028534	    0.011934	    0.005523	    0.017457	    0.001470	    0.003445	    0.004915	   -0.018655	    0.019626	    0.000971	   -0.003848	    0.135910	    0.132062	    0.083662	    0.195076	    0.278738	   -0.048757	    0.091570	    0.042813	   -0.018093	    0.014834	   -0.003258	    0.007778	   -0.004665	    0.003113
     8.025	0	0	    0	    0.046606	    0.078848	    0.125454	   -0.109273	    0.063707	   -0.045566	   -0.070935	    0.151989	    0.081054	    0.038072	    0.236420	    0.274492	   -0.273459	   -0.008966	   -0.282425	   -0.344484	   -0.045538	   -0.390021	    0.058337	    0.057323	    0.115660	   -0.008657	   -0.025349	   -0.034006	   -0.011060	    0.011186	    0.000126	   -0.211526	   -0.009324	   -0.220851	   -0.096500	    0.041764	   -0.054736	   -0.195824	    0.003783	   -0.192041	   -0.176553	   -0.019650	   -0.196202	    0.007936	    0.017402	    0.025337	    0.012962	    0.004803	    0.017765	    0.001545	    0.002917	    0.004462	   -0.017882	    0.020295	    0.002413	   -0.004719	    0.136301	    0.131582	    0.083551	    0.197046	    0.280597	   -0.047651	    0.090244	    0.042594	   -0.018210	    0.014445	   -0.003765	    0.006815	   -0.005086	    0.001729
     8.100	0	0	    0	    0.046248	    0.079032	    0.125279	   -0.110827	    0.062043	   -0.048785	   -0.071416	    0.152233	    0.080818	    0.039258	    0.235849	    0.275106	   -0.277933	   -0.008202	   -0.286136	   -0.345503	   -0.052598	   -0.398101	    0.063282	    0.052533	    0.115815	   -0.009796	   -0.025726	   -0.035522	   -0.012958	    0.011927	   -0.001031	   -0.215886	   -0.012811	   -0.228697	   -0.097914	    0.042762	   -0.055152	   -0.199638	    0.003374	   -0.196264	   -0.182594	   -0.022248	   -0.204842	    0.006794	    0.014686	    0.021480	    0.011461	    0.004279	    0.015740	    0.001108	    0.002656	    0.003763	   -0.020658	    0.018108	   -0.002550	   -0.008696	    0.135315	    0.126620	    0.078624	    0.196525	    0.275149	   -0.052301	    0.090471	    0.038170	   -0.022621	    0.014472	   -0.008149	    0.008430	   -0.007398	    0.001032
     8.175	0	0	    0	    0.044609	    0.079495	    0.124105	   -0.115714	    0.061731	   -0.053983	   -0.075301	    0.154018	    0.078717	    0.037159	    0.238071	    0.275230	   -0.279466	   -0.007779	   -0.287245	   -0.350558	   -0.053255	   -0.403812	    0.050843	    0.063215	    0.114058	   -0.011432	   -0.024968	   -0.036400	   -0.014532	    0.010931	   -0.003601	   -0.222773	   -0.015823	   -0.238596	   -0.100626	    0.042557	   -0.058068	   -0.202457	    0.003379	   -0.199078	   -0.188328	   -0.023618	   -0.211946	    0.002104	    0.017621	    0.019726	    0.011461	    0.004279	    0.015740	    0.001069	    0.002689	    0.003758	   -0.027312	    0.019105	   -0.008207	   -0.014039	    0.135746	    0.121706	    0.073360	    0.196874	    0.270234	   -0.058718	    0.089934	    0.031216	   -0.025237	    0.013504	   -0.011733	    0.005578	   -0.006546	   -0.000968
     8.250	0	0	    0	    0.042145	    0.078019	    0.120164	   -0.118008	    0.061331	   -0.056677	   -0.075873	    0.154127	    0.078253	    0.037841	    0.235969	    0.273809	   -0.277748	   -0.007915	   -0.285664	   -0.343945	   -0.055489	   -0.399433	    0.055825	    0.052194	    0.108019	   -0.011740	   -0.026386	   -0.038126	   -0.016824	    0.011683	   -0.005141	   -0.224089	   -0.017102	   -0.241191	   -0.101960	    0.042422	   -0.059538	   -0.203847	    0.003463	   -0.200384	   -0.190613	   -0.025768	   -0.216381	    0.001345	    0.014938	    0.016283	    0.009485	    0.003338	    0.012824	    0.000244	    0.003400	    0.003644	   -0.029918	    0.015985	   -0.013933	   -0.021018	    0.134734	    0.113716	    0.066858	    0.194857	    0.261714	   -0.065805	    0.088350	    0.022546	   -0.030328	    0.013167	   -0.017161	    0.001409	   -0.003659	   -0.002250
     8.325	0	0	    0	    0.038795	    0.079159	    0.117954	   -0.122535	    0.062482	   -0.060054	   -0.077526	    0.153592	    0.076066	    0.035064	    0.238239	    0.273302	   -0.278401	   -0.009536	   -0.287937	   -0.349790	   -0.051346	   -0.401136	    0.050593	    0.056674	    0.107267	   -0.014928	   -0.024656	   -0.039584	   -0.018932	    0.011548	   -0.007384	   -0.229324	   -0.016091	   -0.245415	   -0.106272	    0.042814	   -0.063458	   -0.206576	    0.001994	   -0.204582	   -0.195866	   -0.024029	   -0.219895	   -0.001161	    0.016068	    0.014907	    0.007144	    0.005193	    0.012337	   -0.000502	    0.003436	    0.002934	   -0.034262	    0.017719	   -0.016544	   -0.025129	    0.133457	    0.108328	    0.061379	    0.194517	    0.255896	   -0.072281	    0.087948	    0.015666	   -0.033749	    0.011601	   -0.022148	    0.002480	   -0.005690	   -0.003210
     8.400	0	0	    0	    0.036925	    0.075483	    0.112408	   -0.123776	    0.060916	   -0.062860	   -0.078098	    0.152618	    0.074520	    0.035389	    0.234347	    0.269736	   -0.274062	   -0.006339	   -0.280400	   -0.341706	   -0.053055	   -0.394762	    0.048265	    0.058523	    0.106788	   -0.015821	   -0.025574	   -0.041395	   -0.020519	    0.011048	   -0.009472	   -0.231039	   -0.017453	   -0.248492	   -0.106629	    0.042430	   -0.064199	   -0.207123	    0.003401	   -0.203722	   -0.197413	   -0.027364	   -0.224777	   -0.004751	    0.016214	    0.011463	    0.006436	    0.005477	    0.011912	   -0.000811	    0.003115	    0.002305	   -0.036880	    0.015536	   -0.021344	   -0.031709	    0.131484	    0.099775	    0.052077	    0.192753	    0.244830	   -0.079754	    0.087010	    0.007256	   -0.038923	    0.012125	   -0.026798	    0.001123	   -0.005929	   -0.004805
     8.475	0	0	    0	    0.037548	    0.075155	    0.112702	   -0.127473	    0.061175	   -0.066299	   -0.079932	    0.152334	    0.072402	    0.033429	    0.235178	    0.268607	   -0.275412	   -0.004268	   -0.279680	   -0.342335	   -0.047703	   -0.390037	    0.048174	    0.054246	    0.102421	   -0.014023	   -0.026515	   -0.040538	   -0.023016	    0.010130	   -0.012886	   -0.236156	   -0.016844	   -0.253000	   -0.109181	    0.041945	   -0.067236	   -0.209843	    0.003747	   -0.206096	   -0.202327	   -0.024289	   -0.226616	   -0.008302	    0.016820	    0.008518	    0.005673	    0.004663	    0.010335	   -0.001905	    0.003359	    0.001454	   -0.040868	    0.015363	   -0.025505	   -0.037340	    0.130787	    0.093447	    0.046837	    0.190708	    0.237545	   -0.086814	    0.085860	   -0.000954	   -0.043617	    0.010962	   -0.032655	   -0.002050	   -0.004209	   -0.006259
     8.550	0	0	    0	    0.042875	    0.076695	    0.119570	   -0.118811	    0.058161	   -0.060649	   -0.078464	    0.151256	    0.072792	    0.034727	    0.236256	    0.270983	   -0.274338	   -0.003634	   -0.277971	   -0.339256	   -0.047995	   -0.387251	    0.056982	    0.052116	    0.109098	   -0.008962	   -0.025218	   -0.034180	   -0.019465	    0.010027	   -0.009438	   -0.225110	   -0.019701	   -0.244810	   -0.104595	    0.040092	   -0.064503	   -0.200209	    0.003626	   -0.196583	   -0.194394	   -0.027509	   -0.221903	    0.006933	    0.011495	    0.018427	    0.011481	    0.003047	    0.014527	    0.000799	    0.002599	    0.003398	   -0.034174	    0.012600	   -0.021574	   -0.017292	    0.127931	    0.110639	    0.065175	    0.185854	    0.251029	   -0.078905	    0.079492	    0.000588	   -0.034364	    0.007943	   -0.026421	    0.005509	   -0.007301	   -0.001792
     8.625	0	0	    0	    0.044245	    0.076030	    0.120275	   -0.111606	    0.061757	   -0.049849	   -0.074077	    0.152609	    0.078531	    0.036245	    0.235588	    0.271832	   -0.268781	   -0.002301	   -0.271081	   -0.330501	   -0.049746	   -0.380247	    0.060237	    0.053209	    0.113447	   -0.007431	   -0.025451	   -0.032882	   -0.012845	    0.011791	   -0.001054	   -0.213136	   -0.015517	   -0.228653	   -0.097517	    0.042337	   -0.055179	   -0.194754	    0.005246	   -0.189507	   -0.180185	   -0.023533	   -0.203717	    0.011756	    0.011630	    0.023386	    0.008986	    0.006603	    0.015589	    0.003680	    0.003629	    0.007309	   -0.020536	    0.015823	   -0.004713	   -0.007113	    0.134148	    0.127035	    0.079367	    0.193327	    0.272694	   -0.053613	    0.083956	    0.030343	   -0.021396	    0.011739	   -0.009657	    0.006130	   -0.006640	   -0.000510
     8.700	0	0	    0	    0.044093	    0.075617	    0.119709	   -0.109567	    0.063607	   -0.045960	   -0.072599	    0.153589	    0.080989	    0.037737	    0.234266	    0.272003	   -0.267187	    0.001233	   -0.265953	   -0.326963	   -0.041417	   -0.368380	    0.057492	    0.056644	    0.114136	   -0.009054	   -0.024595	   -0.033649	   -0.012193	    0.013062	    0.000869	   -0.209530	   -0.011852	   -0.221382	   -0.094959	    0.043329	   -0.051630	   -0.192885	    0.006905	   -0.185980	   -0.173849	   -0.019392	   -0.193241	    0.007216	    0.017690	    0.024906	    0.009942	    0.006528	    0.016470	    0.003819	    0.004038	    0.007857	   -0.018057	    0.019344	    0.001287	   -0.004158	    0.135884	    0.131726	    0.082764	    0.194068	    0.276832	   -0.050103	    0.089828	    0.039724	   -0.018391	    0.014088	   -0.004303	    0.004675	   -0.005071	   -0.000396
     8.775	0	0	    0	    0.043571	    0.075353	    0.118924	   -0.108886	    0.063770	   -0.045116	   -0.071578	    0.153289	    0.081711	    0.038084	    0.233594	    0.271678	   -0.262282	    0.003325	   -0.258957	   -0.324140	   -0.041163	   -0.365303	    0.056075	    0.055343	    0.111418	   -0.008680	   -0.024597	   -0.033278	   -0.011690	    0.012235	    0.000545	   -0.208464	   -0.011257	   -0.219721	   -0.094344	    0.043138	   -0.051206	   -0.190462	    0.007343	   -0.183119	   -0.173811	   -0.016683	   -0.190494	    0.009551	    0.014548	    0.024100	    0.009654	    0.005925	    0.015579	    0.003035	    0.004565	    0.007601	   -0.017754	    0.021407	    0.003653	   -0.004149	    0.135719	    0.131570	    0.080907	    0.195218	    0.276126	   -0.050501	    0.092297	    0.041796	   -0.020187	    0.016971	   -0.003216	    0.005251	   -0.004808	    0.000443
     8.850	0	0	    0	    0.044166	    0.074469	    0.118635	   -0.107718	    0.063407	   -0.044311	   -0.071556	    0.153512	    0.081956	    0.039388	    0.231593	    0.270981	   -0.256630	    0.004472	   -0.252158	   -0.318706	   -0.035710	   -0.354415	    0.056370	    0.054992	    0.111362	   -0.007710	   -0.025442	   -0.033152	   -0.011866	    0.012616	    0.000750	   -0.207836	   -0.010274	   -0.218110	   -0.092971	    0.042823	   -0.050148	   -0.187088	    0.007476	   -0.179612	   -0.170785	   -0.016034	   -0.186820	    0.007643	    0.014988	    0.022630	    0.010251	    0.006096	    0.016347	    0.003351	    0.003560	    0.006911	   -0.016619	    0.020092	    0.003473	   -0.003153	    0.135232	    0.132079	    0.081980	    0.194585	    0.276566	   -0.049480	    0.089912	    0.040432	   -0.019401	    0.015403	   -0.003998	    0.006535	   -0.006565	   -0.000031
     8.925	0	0	    0	    0.042184	    0.073481	    0.115665	   -0.108328	    0.064031	   -0.044298	   -0.071030	    0.151663	    0.080633	    0.038469	    0.231023	    0.269492	   -0.257575	    0.010089	   -0.247486	   -0.312796	   -0.033204	   -0.345999	    0.051987	    0.052577	    0.104565	   -0.008837	   -0.025753	   -0.034590	   -0.012193	    0.012343	    0.000150	   -0.206869	   -0.010953	   -0.217822	   -0.094405	    0.043888	   -0.050517	   -0.188500	    0.009422	   -0.179078	   -0.168725	   -0.014495	   -0.183219	    0.004094	    0.015432	    0.019525	    0.007318	    0.006964	    0.014282	    0.002979	    0.003665	    0.006644	   -0.016775	    0.019542	    0.002767	   -0.005803	    0.135024	    0.129221	    0.077373	    0.194386	    0.271759	   -0.050302	    0.090064	    0.039762	   -0.020536	    0.014919	   -0.005617	    0.003306	   -0.004871	   -0.001565
     9.000	0	0	    0	    0.042138	    0.074328	    0.116466	   -0.110210	    0.063365	   -0.046844	   -0.071146	    0.151446	    0.080300	    0.039760	    0.232141	    0.271900	   -0.266256	    0.010130	   -0.256127	   -0.314806	   -0.032416	   -0.347222	    0.048448	    0.057992	    0.106440	   -0.010115	   -0.025490	   -0.035605	   -0.013396	    0.011703	   -0.001693	   -0.211165	   -0.011776	   -0.222941	   -0.096787	    0.043083	   -0.053704	   -0.194859	    0.009223	   -0.185636	   -0.171996	   -0.014429	   -0.186426	    0.006146	    0.012276	    0.018421	    0.010628	    0.003491	    0.014119	    0.001983	    0.003605	    0.005588	   -0.020406	    0.020063	   -0.000343	   -0.009915	    0.133446	    0.123531	    0.076293	    0.192093	    0.268386	   -0.053002	    0.089170	    0.036168	   -0.024351	    0.013617	   -0.010734	    0.006970	   -0.009122	   -0.002151
     9.075	0	0	    0	    0.040991	    0.077563	    0.118553	   -0.115412	    0.063006	   -0.052406	   -0.073318	    0.153797	    0.080479	    0.035772	    0.239925	    0.275697	   -0.277442	   -0.000985	   -0.278427	   -0.333593	   -0.035154	   -0.368747	    0.050672	    0.054562	    0.105234	   -0.011876	   -0.024869	   -0.036745	   -0.014202	    0.010994	   -0.003208	   -0.221333	   -0.014076	   -0.235409	   -0.102834	    0.041449	   -0.061385	   -0.206466	    0.004389	   -0.202078	   -0.184136	   -0.014266	   -0.198402	    0.001370	    0.013686	    0.015056	    0.006909	    0.004779	    0.011687	    0.001179	    0.003178	    0.004357	   -0.022247	    0.017868	   -0.004379	   -0.013676	    0.134187	    0.120511	    0.073948	    0.196191	    0.270140	   -0.059231	    0.089463	    0.030232	   -0.026937	    0.012495	   -0.014443	    0.003244	   -0.006067	   -0.002823
     9.150	0	0	    0	    0.039177	    0.077677	    0.116855	   -0.118916	    0.062552	   -0.056364	   -0.076683	    0.157805	    0.081122	    0.034287	    0.239216	    0.273503	   -0.278036	   -0.005286	   -0.283323	   -0.344705	   -0.042413	   -0.387118	    0.051133	    0.054993	    0.106126	   -0.013088	   -0.025229	   -0.038317	   -0.016529	    0.013061	   -0.003469	   -0.226177	   -0.017433	   -0.243611	   -0.105403	    0.040538	   -0.064865	   -0.209877	    0.000678	   -0.209199	   -0.191463	   -0.022446	   -0.213909	    0.000079	    0.015433	    0.015512	    0.008340	    0.003595	    0.011935	    0.000008	    0.003151	    0.003159	   -0.027978	    0.018853	   -0.009125	   -0.019679	    0.134126	    0.114447	    0.067338	    0.197657	    0.264995	   -0.066874	    0.089442	    0.022568	   -0.033808	    0.014473	   -0.019336	    0.003069	   -0.005815	   -0.002746
     9.225	0	0	    0	    0.036994	    0.077097	    0.114091	   -0.121802	    0.061832	   -0.059970	   -0.076991	    0.157338	    0.080347	    0.031365	    0.240517	    0.271883	   -0.280948	   -0.003342	   -0.284290	   -0.342494	   -0.049445	   -0.391939	    0.051104	    0.055392	    0.106496	   -0.013937	   -0.025743	   -0.039680	   -0.018212	    0.012459	   -0.005753	   -0.229960	   -0.019224	   -0.249184	   -0.106958	    0.040406	   -0.066551	   -0.213760	    0.000850	   -0.212910	   -0.198180	   -0.024104	   -0.222284	   -0.000933	    0.014112	    0.013179	    0.009715	    0.002636	    0.012351	   -0.001255	    0.002744	    0.001489	   -0.029932	    0.017414	   -0.012518	   -0.025850	    0.132744	    0.106894	    0.059213	    0.196254	    0.255467	   -0.073345	    0.087233	    0.013888	   -0.036653	    0.012267	   -0.024386	    0.002821	   -0.006933	   -0.004112
     9.300	0	0	    0	    0.035182	    0.075930	    0.111111	   -0.124835	    0.061567	   -0.063268	   -0.079725	    0.158481	    0.078756	    0.030894	    0.240211	    0.271105	   -0.279338	   -0.003611	   -0.282948	   -0.341848	   -0.047518	   -0.389365	    0.048108	    0.055045	    0.103153	   -0.015147	   -0.025845	   -0.040992	   -0.020140	    0.012381	   -0.007759	   -0.234169	   -0.019358	   -0.253527	   -0.109887	    0.040606	   -0.069280	   -0.215151	    0.000382	   -0.214768	   -0.201053	   -0.026752	   -0.227805	   -0.003176	    0.011584	    0.008407	    0.005836	    0.004597	    0.010434	   -0.002310	    0.002233	   -0.000077	   -0.033618	    0.015652	   -0.017966	   -0.033268	    0.132029	    0.098760	    0.051079	    0.195622	    0.246701	   -0.081586	    0.087021	    0.005435	   -0.040707	    0.011858	   -0.028849	   -0.001507	   -0.005041	   -0.006548
     9.375	0	0	    0	    0.034289	    0.074664	    0.108953	   -0.128298	    0.061640	   -0.066658	   -0.080323	    0.157008	    0.076685	    0.030591	    0.238043	    0.268633	   -0.280710	   -0.002066	   -0.282776	   -0.336806	   -0.047004	   -0.383810	    0.045711	    0.052636	    0.098346	   -0.015528	   -0.026531	   -0.042059	   -0.022327	    0.011636	   -0.010691	   -0.238655	   -0.018253	   -0.256907	   -0.112518	    0.040575	   -0.071943	   -0.218890	    0.000437	   -0.218454	   -0.205533	   -0.026026	   -0.231559	   -0.003670	    0.009013	    0.005343	    0.003371	    0.005481	    0.008852	   -0.004291	    0.002263	   -0.002028	   -0.037510	    0.017365	   -0.020145	   -0.040076	    0.130808	    0.090733	    0.043703	    0.193273	    0.236975	   -0.089241	    0.085644	   -0.003597	   -0.045197	    0.010771	   -0.034426	   -0.001199	   -0.006683	   -0.007883
     9.450	0	0	    0	    0.040058	    0.075114	    0.115172	   -0.125111	    0.058887	   -0.066223	   -0.081188	    0.156658	    0.075470	    0.031671	    0.237244	    0.268915	   -0.276408	   -0.002892	   -0.279300	   -0.336362	   -0.046986	   -0.383347	    0.057110	    0.047547	    0.104657	   -0.009489	   -0.026922	   -0.036411	   -0.021230	    0.010303	   -0.010928	   -0.232512	   -0.022924	   -0.255436	   -0.111653	    0.038584	   -0.073069	   -0.211029	   -0.002342	   -0.213371	   -0.205633	   -0.028966	   -0.234599	   -0.000465	    0.010370	    0.009905	    0.011209	    0.001023	    0.012231	   -0.003609	    0.000636	   -0.002973	   -0.037052	    0.014208	   -0.022844	   -0.031553	    0.127047	    0.095495	    0.046434	    0.188474	    0.234908	   -0.092744	    0.082161	   -0.010582	   -0.042480	    0.007743	   -0.034737	    0.005313	   -0.011235	   -0.005922
     9.525	0	0	    0	    0.043143	    0.075234	    0.118377	   -0.115627	    0.062194	   -0.053432	   -0.076495	    0.156602	    0.080106	    0.033540	    0.237770	    0.271310	   -0.276021	   -0.001494	   -0.277515	   -0.333025	   -0.043070	   -0.376095	    0.054375	    0.057110	    0.111485	   -0.007822	   -0.025685	   -0.033506	   -0.012664	    0.011290	   -0.001374	   -0.218364	   -0.017538	   -0.235903	   -0.104450	    0.041000	   -0.063450	   -0.204022	    0.001250	   -0.202772	   -0.187774	   -0.025027	   -0.212801	    0.006275	    0.015996	    0.022271	    0.009733	    0.004666	    0.014399	    0.001112	    0.000913	    0.002026	   -0.022496	    0.017615	   -0.004882	   -0.012327	    0.132151	    0.119824	    0.070178	    0.192476	    0.262655	   -0.067706	    0.082622	    0.014916	   -0.027205	    0.011841	   -0.015364	    0.005726	   -0.007152	   -0.001426
     9.600	0	0	    0	    0.044580	    0.074669	    0.119249	   -0.111884	    0.063385	   -0.048499	   -0.075061	    0.157502	    0.082441	    0.034318	    0.236859	    0.271177	   -0.272906	    0.001935	   -0.270971	   -0.325066	   -0.043905	   -0.368971	    0.057928	    0.054757	    0.112685	   -0.008237	   -0.024609	   -0.032846	   -0.011211	    0.013169	    0.001958	   -0.213372	   -0.014220	   -0.227591	   -0.099765	    0.042658	   -0.057107	   -0.199425	    0.004105	   -0.195319	   -0.180741	   -0.022076	   -0.202817	    0.011907	    0.013621	    0.025528	    0.008363	    0.007674	    0.016037	    0.001913	    0.001763	    0.003676	   -0.018511	    0.020156	    0.001645	   -0.008711	    0.135120	    0.126409	    0.074758	    0.196683	    0.271441	   -0.056823	    0.088965	    0.032142	   -0.022311	    0.015301	   -0.007010	    0.003334	   -0.003769	   -0.000435
     9.675	0	0	    0	    0.042960	    0.074872	    0.117832	   -0.110890	    0.064432	   -0.046458	   -0.073037	    0.156649	    0.083613	    0.036209	    0.234394	    0.270603	   -0.267693	    0.003422	   -0.264271	   -0.325048	   -0.042483	   -0.367531	    0.054869	    0.056216	    0.111085	   -0.007744	   -0.025529	   -0.033272	   -0.010773	    0.013871	    0.003098	   -0.212341	   -0.013498	   -0.225839	   -0.097110	    0.042589	   -0.054521	   -0.196168	    0.005227	   -0.190941	   -0.179433	   -0.018348	   -0.197782	    0.009411	    0.012878	    0.022289	    0.011792	    0.004146	    0.015938	    0.002509	    0.001938	    0.004448	   -0.015203	    0.019206	    0.004003	   -0.007341	    0.135154	    0.127813	    0.075769	    0.196872	    0.272641	   -0.053584	    0.090413	    0.036829	   -0.021221	    0.015738	   -0.005482	    0.005583	   -0.005801	   -0.000218
     9.750	0	0	    0	    0.041172	    0.076274	    0.117446	   -0.110902	    0.063620	   -0.047282	   -0.073020	    0.154730	    0.081710	    0.035921	    0.234506	    0.270426	   -0.267781	    0.004434	   -0.263347	   -0.327609	   -0.035946	   -0.363556	    0.057429	    0.052940	    0.110369	   -0.008537	   -0.024737	   -0.033275	   -0.010886	    0.012369	    0.001483	   -0.213103	   -0.012498	   -0.225600	   -0.096245	    0.042635	   -0.053610	   -0.195742	    0.006388	   -0.189354	   -0.178446	   -0.017455	   -0.195901	    0.010961	    0.012095	    0.023056	    0.007737	    0.007617	    0.015354	    0.001906	    0.002026	    0.003933	   -0.017278	    0.019532	    0.002253	   -0.008645	    0.134844	    0.126199	    0.075739	    0.197204	    0.272943	   -0.054802	    0.090747	    0.035945	   -0.022446	    0.015352	   -0.007094	    0.004503	   -0.004070	    0.000433
     9.825	0	0	    0	    0.041720	    0.075842	    0.117562	   -0.111770	    0.065172	   -0.046598	   -0.072704	    0.155568	    0.082865	    0.036043	    0.236088	    0.272131	   -0.272293	    0.001719	   -0.270574	   -0.330363	   -0.037357	   -0.367720	    0.052503	    0.058092	    0.110595	   -0.009658	   -0.024592	   -0.034251	   -0.009946	    0.011887	    0.001941	   -0.212407	   -0.012394	   -0.224801	   -0.098041	    0.043222	   -0.054818	   -0.199190	    0.005599	   -0.193591	   -0.180305	   -0.016585	   -0.196890	    0.007783	    0.013514	    0.021297	    0.007665	    0.007336	    0.015001	    0.002384	    0.001595	    0.003979	   -0.014345	    0.018445	    0.004101	   -0.008156	    0.134696	    0.126540	    0.077217	    0.198493	    0.275710	   -0.052809	    0.090695	    0.037887	   -0.022426	    0.014794	   -0.007632	    0.003932	   -0.003586	    0.000346
     9.900	0	0	    0	    0.040276	    0.075696	    0.115971	   -0.112591	    0.063229	   -0.049362	   -0.074099	    0.157178	    0.083078	    0.036601	    0.234973	    0.271574	   -0.271347	    0.002326	   -0.269021	   -0.327758	   -0.041538	   -0.369296	    0.057599	    0.052795	    0.110394	   -0.011212	   -0.024825	   -0.036037	   -0.011507	    0.013089	    0.001582	   -0.215638	   -0.014494	   -0.230132	   -0.098489	    0.042799	   -0.055690	   -0.200151	    0.005757	   -0.194394	   -0.181978	   -0.019046	   -0.201024	    0.008689	    0.010799	    0.019488	    0.010334	    0.004629	    0.014963	    0.001015	    0.002240	    0.003255	   -0.017701	    0.019555	    0.001855	   -0.012418	    0.133548	    0.121130	    0.073025	    0.197398	    0.270423	   -0.056527	    0.090953	    0.034426	   -0.023499	    0.013681	   -0.009818	    0.006049	   -0.008008	   -0.001959
