 [File Information]      		 [Data Line]	36
Measured Date	2024/05/21 103503
ID		Version	11.0
Name	tristan_6	[HeaderType]	11.0/11.0
Comment	
[Measurement Info.]
Holder Location	       0
Block Design	Off     
Pre.Rest Time	       0
Task Time	       0
Pos.Rest Time	       0
Loop	       0
Averaging	       1
Total Points	     833
[.INF File]
Filename	Cognitive1.INF
[Condition-1]
HV Switching	OFF
 R1 ,R2 ,R3 ,R4 ,R5 ,R6 ,R7 ,R8 
 120.00, 70.00,120.00,100.00, 90.00, 70.00,120.00,120.00
 Gain(X1,X4,X16,X64)
 R1 ,R2 ,R3 ,R4 ,R5 ,R6 ,R7 ,R8 
 1,1,1,1,1,1,1,1
[Analysis Condition]
Smoothed Type	None            
Smoothed Points	       0
Smoothed Loop	       0
Baseline Method	None            
Baseline location	
[Text Info.]
Output Mode	Continious      	Task No.		Data Type	Hb      
Time Range	    0.00	   62.40	Averaing	1
(1,3)(5,3)(5,7)(2,7)(2,4)(6,4)(6,8)(1,1)(3,3)(5,5)(7,7)(2,2)(4,4)(6,6)(8,8)(3,1)(3,5)(7,5)(7,2)(4,2)(4,6)(8,6)
         	     	     	     	    ch- 1	    ch- 1	    ch- 1	    ch- 2	    ch- 2	    ch- 2	    ch- 3	    ch- 3	    ch- 3	    ch- 4	    ch- 4	    ch- 4	    ch- 5	    ch- 5	    ch- 5	    ch- 6	    ch- 6	    ch- 6	    ch- 7	    ch- 7	    ch- 7	    ch- 8	    ch- 8	    ch- 8	    ch- 9	    ch- 9	    ch- 9	    ch-10	    ch-10	    ch-10	    ch-11	    ch-11	    ch-11	    ch-12	    ch-12	    ch-12	    ch-13	    ch-13	    ch-13	    ch-14	    ch-14	    ch-14	    ch-15	    ch-15	    ch-15	    ch-16	    ch-16	    ch-16	    ch-17	    ch-17	    ch-17	    ch-18	    ch-18	    ch-18	    ch-19	    ch-19	    ch-19	    ch-20	    ch-20	    ch-20	    ch-21	    ch-21	    ch-21	    ch-22	    ch-22	    ch-22
Time(sec)	Task	Mark	Count	    oxyHb   	  deoxyHb	  totalHb	    oxyHb   	  deoxyHb	  totalHb	    oxyHb   	  deoxyHb	  totalHb	    oxyHb   	  deoxyHb	  totalHb	    oxyHb   	  deoxyHb	  totalHb	    oxyHb   	  deoxyHb	  totalHb	    oxyHb   	  deoxyHb	  totalHb	    oxyHb   	  deoxyHb	  totalHb	    oxyHb   	  deoxyHb	  totalHb	    oxyHb   	  deoxyHb	  totalHb	    oxyHb   	  deoxyHb	  totalHb	    oxyHb   	  deoxyHb	  totalHb	    oxyHb   	  deoxyHb	  totalHb	    oxyHb   	  deoxyHb	  totalHb	    oxyHb   	  deoxyHb	  totalHb	    oxyHb   	  deoxyHb	  totalHb	    oxyHb   	  deoxyHb	  totalHb	    oxyHb   	  deoxyHb	  totalHb	    oxyHb   	  deoxyHb	  totalHb	    oxyHb   	  deoxyHb	  totalHb	    oxyHb   	  deoxyHb	  totalHb	    oxyHb   	  deoxyHb	  totalHb
     0.000	0	0Z	    0	    0.000000	    0.000000	    0.000000	    0.000000	    0.000000	    0.000000	    0.000000	    0.000000	    0.000000	    0.000000	    0.000000	    0.000000	    0.000000	    0.000000	    0.000000	    0.000000	    0.000000	    0.000000	    0.000000	    0.000000	    0.000000	    0.000000	    0.000000	    0.000000	    0.000000	    0.000000	    0.000000	    0.000000	    0.000000	    0.000000	    0.000000	    0.000000	    0.000000	    0.000000	    0.000000	    0.000000	    0.000000	    0.000000	    0.000000	    0.000000	    0.000000	    0.000000	    0.000000	    0.000000	    0.000000	    0.000000	    0.000000	    0.000000	    0.000000	    0.000000	    0.000000	    0.000000	    0.000000	    0.000000	    0.000000	    0.000000	    0.000000	    0.000000	    0.000000	    0.000000	    0.000000	    0.000000	    0.000000	    0.000000	    0.000000	    0.000000
     0.075	0	0	    0	    0.000047	   -0.000489	   -0.000442	   -0.001156	   -0.001373	   -0.002529	   -0.000556	   -0.001338	   -0.001894	   -0.000178	    0.000777	    0.000599	    0.000712	    0.000636	    0.001347	   -0.001051	   -0.000490	   -0.001541	    0.001442	   -0.004236	   -0.002794	    0.000767	    0.000255	    0.001022	   -0.000468	   -0.002153	   -0.002621	    0.000131	   -0.001248	   -0.001117	    0.000793	   -0.001332	   -0.000539	    0.002065	   -0.000270	    0.001794	   -0.001228	   -0.001926	   -0.003155	   -0.003577	   -0.000788	   -0.004366	    0.000366	   -0.002371	   -0.002006	    0.001327	    0.001421	    0.002748	   -0.000795	   -0.003970	   -0.004765	   -0.000049	   -0.000595	   -0.000644	   -0.000122	   -0.000163	   -0.000285	    0.000629	   -0.001737	   -0.001108	   -0.000508	   -0.003180	   -0.003688	    0.001762	   -0.003110	   -0.001348
     0.150	0	0	    0	   -0.001020	    0.000042	   -0.000978	    0.000214	   -0.002168	   -0.001954	    0.000833	   -0.001137	   -0.000304	    0.000984	    0.000593	    0.001578	    0.001321	    0.000877	    0.002198	   -0.001241	   -0.001176	   -0.002417	    0.000734	   -0.004133	   -0.003399	   -0.000323	   -0.000000	   -0.000324	   -0.001517	   -0.000332	   -0.001850	    0.000177	   -0.000561	   -0.000384	    0.000840	   -0.000390	    0.000450	    0.001442	    0.000315	    0.001758	   -0.001777	   -0.000720	   -0.002497	   -0.002629	   -0.002739	   -0.005368	   -0.003378	    0.000580	   -0.002798	    0.002123	    0.002469	    0.004592	   -0.001432	   -0.004094	   -0.005526	   -0.000105	    0.000084	   -0.000021	    0.000488	   -0.000021	    0.000467	   -0.000445	    0.000019	   -0.000426	   -0.002538	   -0.001200	   -0.003738	   -0.001114	    0.000035	   -0.001079
     0.225	0	0	    0	    0.000463	    0.000140	    0.000604	   -0.002878	   -0.001195	   -0.004073	   -0.000286	   -0.000886	   -0.001172	    0.002500	    0.001190	    0.003690	   -0.000219	    0.000574	    0.000355	   -0.002889	   -0.000831	   -0.003720	   -0.007746	    0.003958	   -0.003788	   -0.002481	    0.000655	   -0.001826	   -0.002912	   -0.001234	   -0.004146	   -0.003540	    0.000657	   -0.002883	   -0.001267	   -0.000218	   -0.001485	   -0.001637	    0.000460	   -0.001177	   -0.002630	   -0.001927	   -0.004556	   -0.005506	   -0.001992	   -0.007498	   -0.001311	   -0.001119	   -0.002430	    0.002036	    0.003514	    0.005550	   -0.003169	   -0.006201	   -0.009371	   -0.000840	   -0.001339	   -0.002178	   -0.000084	   -0.001344	   -0.001428	   -0.000883	   -0.002233	   -0.003116	   -0.002690	   -0.004893	   -0.007583	    0.001232	   -0.002298	   -0.001066
     0.300	0	0	    0	    0.020468	    0.002243	    0.022711	   -0.004349	   -0.001610	   -0.005960	   -0.003913	   -0.003137	   -0.007050	    0.017926	    0.007119	    0.025045	   -0.020857	    0.004011	   -0.016846	   -0.007387	    0.000505	   -0.006882	   -0.003643	   -0.002955	   -0.006598	   -0.010386	   -0.001186	   -0.011572	   -0.006525	   -0.002888	   -0.009414	   -0.028840	    0.000237	   -0.028602	   -0.029471	    0.001344	   -0.028127	   -0.058093	   -0.003332	   -0.061424	   -0.014139	   -0.002714	   -0.016853	   -0.011005	   -0.002453	   -0.013457	   -0.007299	    0.000701	   -0.006598	    0.003012	    0.003580	    0.006592	   -0.012339	   -0.008564	   -0.020903	    0.027768	   -0.005020	    0.022748	    0.040607	   -0.006507	    0.034101	   -0.001971	   -0.003454	   -0.005425	   -0.011183	   -0.007219	   -0.018402	   -0.001183	   -0.001902	   -0.003085
     0.375	0	0	    0	    0.070198	    0.065588	    0.135785	   -0.054278	    0.020229	   -0.034049	   -0.019661	    0.017442	   -0.002219	    0.081070	    0.164901	    0.245971	   -0.243898	    0.026543	   -0.217355	   -0.077652	    0.061175	   -0.016478	    0.054218	    0.006124	    0.060342	   -0.016076	   -0.009753	   -0.025829	   -0.013730	   -0.013748	   -0.027478	   -0.168598	   -0.033412	   -0.202010	   -0.085677	   -0.047291	   -0.132968	   -0.132596	   -0.017839	   -0.150435	   -0.048541	   -0.021223	   -0.069764	   -0.000595	   -0.009911	   -0.010506	   -0.007228	   -0.002582	   -0.009811	    0.004686	    0.008913	    0.013599	   -0.023708	   -0.028364	   -0.052073	    0.086649	    0.044041	    0.130690	    0.207830	    0.091826	    0.299655	    0.030334	   -0.002387	    0.027947	   -0.042051	   -0.014664	   -0.056715	    0.004010	   -0.002894	    0.001116
     0.450	0	0	    0	    0.073562	    0.094477	    0.168040	   -0.086307	    0.009495	   -0.076812	   -0.035602	    0.099210	    0.063609	    0.069942	    0.267982	    0.337924	   -0.278048	   -0.038931	   -0.316979	   -0.367465	   -0.044775	   -0.412240	    0.065038	    0.048620	    0.113658	   -0.017158	   -0.012396	   -0.029553	   -0.000333	   -0.009307	   -0.009640	   -0.172042	   -0.112425	   -0.284468	   -0.066922	   -0.013775	   -0.080697	   -0.165487	   -0.015457	   -0.180945	   -0.185236	   -0.078951	   -0.264188	   -0.002852	   -0.017214	   -0.020066	   -0.004713	   -0.000718	   -0.005431	    0.002978	    0.013949	    0.016927	   -0.019059	   -0.047928	   -0.066987	    0.094848	    0.076922	    0.171770	    0.216697	    0.180142	    0.396839	    0.048691	    0.027597	    0.076288	   -0.037925	   -0.051431	   -0.089356	    0.003245	    0.001315	    0.004560
     0.525	0	0	    0	    0.073097	    0.098482	    0.171578	   -0.103392	    0.002442	   -0.100949	   -0.050882	    0.129656	    0.078775	    0.060052	    0.286796	    0.346848	   -0.282622	   -0.052844	   -0.335466	   -0.400178	   -0.135241	   -0.535419	    0.056959	    0.057959	    0.114918	   -0.018588	   -0.014527	   -0.033115	   -0.000087	   -0.006049	   -0.006136	   -0.185571	   -0.116873	   -0.302444	   -0.076862	    0.006325	   -0.070537	   -0.180998	   -0.022916	   -0.203914	   -0.218326	   -0.125634	   -0.343959	   -0.008669	   -0.015758	   -0.024427	   -0.003511	    0.001116	   -0.002395	    0.002331	    0.016579	    0.018910	   -0.021017	   -0.050088	   -0.071105	    0.083734	    0.084790	    0.168524	    0.192737	    0.189703	    0.382440	    0.033234	    0.033732	    0.066967	   -0.044954	   -0.048648	   -0.093602	   -0.000821	    0.003519	    0.002698
     0.600	0	0	    0	    0.071029	    0.094509	    0.165538	   -0.103178	   -0.001026	   -0.104204	   -0.051562	    0.132164	    0.080602	    0.061865	    0.284553	    0.346418	   -0.269427	   -0.053523	   -0.322951	   -0.375336	   -0.144088	   -0.519424	    0.059010	    0.057774	    0.116784	   -0.013934	   -0.015631	   -0.029565	   -0.000639	   -0.005312	   -0.005951	   -0.184976	   -0.118889	   -0.303864	   -0.079436	    0.007601	   -0.071835	   -0.172675	   -0.028157	   -0.200833	   -0.218731	   -0.137243	   -0.355973	    0.001177	   -0.020776	   -0.019599	   -0.000060	    0.002066	    0.002006	    0.003283	    0.016723	    0.020006	   -0.025736	   -0.051971	   -0.077708	    0.079774	    0.077997	    0.157771	    0.179643	    0.173006	    0.352650	    0.015673	    0.023802	    0.039475	   -0.043275	   -0.052310	   -0.095585	    0.002095	    0.000700	    0.002795
     0.675	0	0	    0	    0.071200	    0.081499	    0.152699	   -0.087929	   -0.004319	   -0.092247	   -0.040461	    0.124705	    0.084244	    0.066234	    0.279336	    0.345570	   -0.266754	   -0.040757	   -0.307512	   -0.349038	   -0.125067	   -0.474105	    0.068644	    0.049627	    0.118272	   -0.013111	   -0.015223	   -0.028334	    0.006763	   -0.005893	    0.000870	   -0.163324	   -0.114176	   -0.277500	   -0.067657	    0.007061	   -0.060596	   -0.165896	   -0.019787	   -0.185683	   -0.191957	   -0.131084	   -0.323040	    0.010565	   -0.017993	   -0.007428	    0.004170	    0.001247	    0.005417	    0.006427	    0.017493	    0.023920	   -0.007263	   -0.054725	   -0.061989	    0.089477	    0.076087	    0.165564	    0.191313	    0.164719	    0.356032	    0.024820	    0.012341	    0.037161	   -0.031920	   -0.048900	   -0.080820	    0.002288	    0.001228	    0.003516
     0.750	0	0	    0	    0.073401	    0.079296	    0.152697	   -0.082794	   -0.003366	   -0.086160	   -0.036228	    0.125301	    0.089073	    0.067503	    0.278889	    0.346392	   -0.269612	   -0.042389	   -0.312001	   -0.341377	   -0.108789	   -0.450166	    0.066353	    0.050779	    0.117132	   -0.012105	   -0.016070	   -0.028176	    0.009709	   -0.006933	    0.002776	   -0.156347	   -0.104926	   -0.261273	   -0.065924	    0.009369	   -0.056556	   -0.167199	   -0.019947	   -0.187146	   -0.184477	   -0.118050	   -0.302527	    0.013334	   -0.017954	   -0.004620	    0.004326	    0.001577	    0.005903	    0.007976	    0.016724	    0.024699	   -0.000541	   -0.042555	   -0.043095	    0.091573	    0.079162	    0.170735	    0.193645	    0.166286	    0.359931	    0.030616	    0.012355	    0.042970	   -0.026897	   -0.044025	   -0.070923	    0.004489	   -0.000576	    0.003912
     0.825	0	0	    0	    0.072017	    0.077375	    0.149392	   -0.082747	    0.000238	   -0.082509	   -0.034040	    0.126942	    0.092902	    0.065713	    0.279416	    0.345129	   -0.265777	   -0.042747	   -0.308523	   -0.345398	   -0.114785	   -0.460183	    0.069310	    0.053344	    0.122655	   -0.012846	   -0.015218	   -0.028064	    0.011087	   -0.005428	    0.005660	   -0.152722	   -0.100450	   -0.253172	   -0.064162	    0.009515	   -0.054647	   -0.165346	   -0.020432	   -0.185778	   -0.189035	   -0.115864	   -0.304898	    0.012552	   -0.015127	   -0.002574	    0.001941	    0.004400	    0.006341	    0.007675	    0.017593	    0.025268	    0.002924	   -0.038852	   -0.035928	    0.088278	    0.080724	    0.169001	    0.187308	    0.167681	    0.354990	    0.030871	    0.015227	    0.046099	   -0.025728	   -0.042541	   -0.068269	    0.005221	   -0.001421	    0.003799
     0.900	0	0	    0	    0.067892	    0.076994	    0.144886	   -0.080048	    0.000596	   -0.079452	   -0.030971	    0.126499	    0.095528	    0.067241	    0.275822	    0.343063	   -0.259603	   -0.040624	   -0.300227	   -0.341373	   -0.105915	   -0.447289	    0.065668	    0.056151	    0.121819	   -0.013557	   -0.014405	   -0.027962	    0.011938	   -0.006086	    0.005852	   -0.148533	   -0.094527	   -0.243060	   -0.061991	    0.009243	   -0.052749	   -0.162436	   -0.019274	   -0.181709	   -0.185216	   -0.115530	   -0.300746	    0.019124	   -0.019732	   -0.000609	    0.004817	    0.002656	    0.007474	    0.006669	    0.016839	    0.023509	    0.003832	   -0.036533	   -0.032701	    0.085389	    0.078942	    0.164332	    0.183829	    0.163662	    0.347491	    0.025288	    0.014196	    0.039484	   -0.027415	   -0.041692	   -0.069107	    0.005420	   -0.001019	    0.004400
     0.975	0	0	    0	    0.068308	    0.072207	    0.140515	   -0.077509	    0.001241	   -0.076268	   -0.028743	    0.124932	    0.096189	    0.067785	    0.272904	    0.340689	   -0.259503	   -0.035499	   -0.295001	   -0.325490	   -0.097684	   -0.423174	    0.065397	    0.048872	    0.114269	   -0.014286	   -0.015145	   -0.029431	    0.012055	   -0.005337	    0.006718	   -0.144536	   -0.087629	   -0.232165	   -0.061763	    0.010349	   -0.051414	   -0.164315	   -0.018670	   -0.182985	   -0.177465	   -0.112258	   -0.289723	    0.019385	   -0.019685	   -0.000300	    0.002978	    0.003689	    0.006667	    0.005488	    0.016202	    0.021690	    0.005955	   -0.032528	   -0.026573	    0.082251	    0.076985	    0.159236	    0.180058	    0.159634	    0.339692	    0.020307	    0.014594	    0.034901	   -0.030260	   -0.038442	   -0.068702	    0.004837	   -0.001198	    0.003639
     1.050	0	0	    0	    0.067837	    0.070621	    0.138457	   -0.078295	    0.001395	   -0.076900	   -0.028603	    0.126136	    0.097533	    0.067865	    0.272310	    0.340175	   -0.259090	   -0.035275	   -0.294365	   -0.320825	   -0.097568	   -0.418393	    0.064971	    0.048020	    0.112991	   -0.013994	   -0.016064	   -0.030058	    0.011032	   -0.004406	    0.006626	   -0.144652	   -0.087377	   -0.232029	   -0.064060	    0.011085	   -0.052975	   -0.167525	   -0.018914	   -0.186439	   -0.180550	   -0.108972	   -0.289522	    0.016682	   -0.019099	   -0.002418	    0.001200	    0.004500	    0.005701	    0.004819	    0.015738	    0.020557	    0.002708	   -0.029400	   -0.026693	    0.076302	    0.077700	    0.154003	    0.173341	    0.159223	    0.332564	    0.015775	    0.014487	    0.030262	   -0.032440	   -0.037720	   -0.070160	    0.001675	   -0.000204	    0.001470
     1.125	0	0	    0	    0.063195	    0.071527	    0.134723	   -0.081852	    0.003180	   -0.078672	   -0.029265	    0.127126	    0.097861	    0.066939	    0.271677	    0.338615	   -0.254840	   -0.032747	   -0.287586	   -0.319966	   -0.093436	   -0.413403	    0.065163	    0.047480	    0.112643	   -0.017713	   -0.014370	   -0.032083	    0.009748	   -0.003972	    0.005776	   -0.149299	   -0.084988	   -0.234287	   -0.064936	    0.010175	   -0.054762	   -0.167880	   -0.019035	   -0.186916	   -0.181726	   -0.109542	   -0.291268	    0.015234	   -0.019636	   -0.004402	   -0.000507	    0.006168	    0.005661	    0.004302	    0.015705	    0.020007	    0.000213	   -0.029863	   -0.029650	    0.069584	    0.077315	    0.146898	    0.164655	    0.159562	    0.324217	    0.006723	    0.015102	    0.021825	   -0.035428	   -0.037542	   -0.072970	    0.000859	   -0.001780	   -0.000921
     1.200	0	0	    0	    0.060406	    0.068243	    0.128648	   -0.082610	    0.002229	   -0.080381	   -0.029408	    0.125524	    0.096116	    0.067597	    0.266504	    0.334101	   -0.247011	   -0.025573	   -0.272584	   -0.307619	   -0.089262	   -0.396881	    0.068475	    0.039259	    0.107733	   -0.018179	   -0.016019	   -0.034198	    0.007291	   -0.003641	    0.003649	   -0.150228	   -0.084536	   -0.234764	   -0.065980	    0.009320	   -0.056660	   -0.167317	   -0.017796	   -0.185113	   -0.180261	   -0.107250	   -0.287511	    0.012828	   -0.020895	   -0.008067	    0.002671	    0.001361	    0.004032	    0.002905	    0.015432	    0.018337	   -0.004941	   -0.027360	   -0.032301	    0.061910	    0.075929	    0.137839	    0.155193	    0.156231	    0.311424	   -0.002595	    0.014527	    0.011932	   -0.041093	   -0.035579	   -0.076672	   -0.000077	   -0.002236	   -0.002313
     1.275	0	0	    0	    0.058584	    0.069177	    0.127761	   -0.085443	    0.004093	   -0.081350	   -0.030388	    0.124985	    0.094597	    0.066390	    0.267562	    0.333952	   -0.249449	   -0.025635	   -0.275084	   -0.305811	   -0.079124	   -0.384935	    0.059960	    0.044114	    0.104074	   -0.020367	   -0.015012	   -0.035379	    0.005394	   -0.003282	    0.002112	   -0.154071	   -0.081748	   -0.235819	   -0.069674	    0.009515	   -0.060159	   -0.171575	   -0.018841	   -0.190417	   -0.182955	   -0.100981	   -0.283936	    0.007266	   -0.018892	   -0.011626	   -0.002303	    0.005115	    0.002811	    0.001986	    0.014770	    0.016756	   -0.007552	   -0.027309	   -0.034861	    0.055716	    0.074940	    0.130657	    0.148570	    0.155954	    0.304523	   -0.011164	    0.012968	    0.001803	   -0.043868	   -0.036917	   -0.080786	   -0.000696	   -0.003279	   -0.003975
     1.350	0	0	    0	    0.057442	    0.067873	    0.125315	   -0.088751	    0.004128	   -0.084624	   -0.032594	    0.126575	    0.093981	    0.065058	    0.268677	    0.333735	   -0.250930	   -0.023148	   -0.274078	   -0.303726	   -0.079963	   -0.383688	    0.060349	    0.042569	    0.102918	   -0.021387	   -0.015691	   -0.037078	    0.003082	   -0.002877	    0.000204	   -0.157970	   -0.082894	   -0.240864	   -0.072927	    0.010327	   -0.062600	   -0.175511	   -0.018050	   -0.193561	   -0.186660	   -0.102144	   -0.288804	    0.004588	   -0.018185	   -0.013597	   -0.004731	    0.006869	    0.002137	    0.001128	    0.014924	    0.016053	   -0.011363	   -0.027699	   -0.039062	    0.048153	    0.076383	    0.124536	    0.140354	    0.156262	    0.296616	   -0.019164	    0.013138	   -0.006027	   -0.048831	   -0.036388	   -0.085219	   -0.007020	    0.000183	   -0.006837
     1.425	0	0	    0	    0.057192	    0.067448	    0.124640	   -0.092156	    0.004605	   -0.087551	   -0.033415	    0.126424	    0.093009	    0.064697	    0.266300	    0.330997	   -0.247361	   -0.023710	   -0.271071	   -0.301250	   -0.082229	   -0.383479	    0.062051	    0.035138	    0.097189	   -0.019880	   -0.016891	   -0.036771	    0.001553	   -0.003290	   -0.001737	   -0.162329	   -0.083176	   -0.245505	   -0.075303	    0.010080	   -0.065222	   -0.175592	   -0.019315	   -0.194907	   -0.191587	   -0.102612	   -0.294199	    0.005118	   -0.022431	   -0.017312	   -0.002821	    0.002781	   -0.000040	    0.000358	    0.014350	    0.014708	   -0.015368	   -0.028812	   -0.044180	    0.041737	    0.075152	    0.116889	    0.133599	    0.155275	    0.288873	   -0.025881	    0.012590	   -0.013292	   -0.053796	   -0.036705	   -0.090500	   -0.004012	   -0.003048	   -0.007060
     1.500	0	0	    0	    0.062804	    0.067972	    0.130775	   -0.086453	    0.003924	   -0.082529	   -0.032627	    0.125216	    0.092590	    0.067447	    0.263777	    0.331224	   -0.245162	   -0.020588	   -0.265750	   -0.297201	   -0.077375	   -0.374576	    0.070624	    0.037937	    0.108561	   -0.014904	   -0.015469	   -0.030373	    0.005608	   -0.004496	    0.001112	   -0.155389	   -0.083077	   -0.238466	   -0.070882	    0.008409	   -0.062474	   -0.167371	   -0.018392	   -0.185763	   -0.182623	   -0.104229	   -0.286852	    0.017442	   -0.024261	   -0.006820	    0.000945	    0.004013	    0.004958	    0.002409	    0.013128	    0.015538	   -0.010090	   -0.030629	   -0.040719	    0.053706	    0.074107	    0.127813	    0.145048	    0.150518	    0.295566	   -0.022828	    0.008462	   -0.014366	   -0.046350	   -0.039133	   -0.085483	    0.001148	   -0.004521	   -0.003373
     1.575	0	0	    0	    0.063172	    0.068266	    0.131439	   -0.082489	    0.007936	   -0.074553	   -0.029745	    0.126336	    0.096591	    0.068584	    0.264052	    0.332636	   -0.240462	   -0.020363	   -0.260824	   -0.292404	   -0.073426	   -0.365830	    0.071824	    0.040151	    0.111975	   -0.013253	   -0.015083	   -0.028336	    0.011613	   -0.002231	    0.009382	   -0.146871	   -0.077179	   -0.224050	   -0.065890	    0.011543	   -0.054347	   -0.162579	   -0.016542	   -0.179121	   -0.170874	   -0.095925	   -0.266799	    0.016969	   -0.018427	   -0.001458	    0.000283	    0.006940	    0.007223	    0.005296	    0.014913	    0.020210	    0.001661	   -0.025127	   -0.023466	    0.063632	    0.081354	    0.144986	    0.157594	    0.160931	    0.318525	   -0.002237	    0.016597	    0.014360	   -0.035592	   -0.033209	   -0.068801	   -0.001330	   -0.001012	   -0.002342
     1.650	0	0	    0	    0.062813	    0.068463	    0.131277	   -0.081580	    0.009577	   -0.072002	   -0.028898	    0.127428	    0.098530	    0.071392	    0.261061	    0.332454	   -0.239760	   -0.017408	   -0.257168	   -0.285801	   -0.068844	   -0.354644	    0.065709	    0.044375	    0.110084	   -0.014502	   -0.014655	   -0.029157	    0.012180	   -0.000710	    0.011471	   -0.145690	   -0.073008	   -0.218699	   -0.063449	    0.011860	   -0.051589	   -0.162904	   -0.014978	   -0.177882	   -0.165681	   -0.092811	   -0.258491	    0.016916	   -0.016810	    0.000106	    0.004185	    0.002320	    0.006506	    0.005471	    0.015402	    0.020873	    0.005089	   -0.023336	   -0.018247	    0.064995	    0.081954	    0.146949	    0.159826	    0.161362	    0.321189	   -0.002286	    0.024018	    0.021732	   -0.035258	   -0.028735	   -0.063993	    0.002902	   -0.006470	   -0.003567
     1.725	0	0	    0	    0.062913	    0.067773	    0.130686	   -0.082303	    0.010076	   -0.072228	   -0.029029	    0.128128	    0.099099	    0.070130	    0.262337	    0.332467	   -0.240572	   -0.014063	   -0.254635	   -0.285339	   -0.066985	   -0.352323	    0.069842	    0.038250	    0.108093	   -0.014852	   -0.014683	   -0.029535	    0.012013	   -0.000821	    0.011192	   -0.146607	   -0.072216	   -0.218823	   -0.064122	    0.012672	   -0.051450	   -0.163553	   -0.013843	   -0.177396	   -0.167163	   -0.090423	   -0.257586	    0.015177	   -0.018511	   -0.003334	    0.001871	    0.005217	    0.007088	    0.005357	    0.015302	    0.020659	    0.004655	   -0.023799	   -0.019144	    0.059513	    0.084270	    0.143783	    0.154631	    0.163441	    0.318073	   -0.001377	    0.020792	    0.019415	   -0.035269	   -0.029765	   -0.065034	    0.000389	   -0.004500	   -0.004111
     1.800	0	0	    0	    0.062024	    0.067890	    0.129913	   -0.081990	    0.010248	   -0.071742	   -0.028537	    0.128252	    0.099715	    0.071309	    0.260600	    0.331909	   -0.235660	   -0.012598	   -0.248258	   -0.280524	   -0.067791	   -0.348315	    0.069434	    0.039719	    0.109153	   -0.014868	   -0.014784	   -0.029652	    0.012676	   -0.001252	    0.011424	   -0.145728	   -0.071515	   -0.217244	   -0.062984	    0.012740	   -0.050244	   -0.161141	   -0.013045	   -0.174187	   -0.166513	   -0.090850	   -0.257363	    0.015119	   -0.017382	   -0.002263	   -0.000027	    0.006865	    0.006838	    0.005596	    0.015313	    0.020909	    0.004578	   -0.023291	   -0.018713	    0.058737	    0.085364	    0.144101	    0.153218	    0.164704	    0.317922	   -0.005179	    0.025042	    0.019863	   -0.035447	   -0.029868	   -0.065315	   -0.001792	   -0.003611	   -0.005403
     1.875	0	0	    0	    0.061334	    0.066875	    0.128209	   -0.083791	    0.012713	   -0.071078	   -0.028947	    0.128564	    0.099616	    0.070972	    0.258989	    0.329961	   -0.234756	   -0.011223	   -0.245978	   -0.277648	   -0.061333	   -0.338981	    0.062419	    0.045762	    0.108181	   -0.015809	   -0.014920	   -0.030730	    0.011708	   -0.000198	    0.011510	   -0.147135	   -0.069413	   -0.216548	   -0.064249	    0.013747	   -0.050502	   -0.162943	   -0.012396	   -0.175340	   -0.166254	   -0.087307	   -0.253561	    0.015429	   -0.015589	   -0.000160	    0.002961	    0.003008	    0.005969	    0.005550	    0.015438	    0.020988	    0.001968	   -0.021971	   -0.020003	    0.055109	    0.085586	    0.140695	    0.150935	    0.163870	    0.314805	   -0.008420	    0.027160	    0.018740	   -0.037873	   -0.026341	   -0.064214	    0.000948	   -0.004372	   -0.003424
     1.950	0	0	    0	    0.060006	    0.066372	    0.126378	   -0.085333	    0.012204	   -0.073129	   -0.029081	    0.128245	    0.099164	    0.071939	    0.257367	    0.329306	   -0.232084	   -0.010115	   -0.242199	   -0.276570	   -0.060860	   -0.337430	    0.064037	    0.039346	    0.103383	   -0.015367	   -0.015222	   -0.030589	    0.009864	   -0.000010	    0.009854	   -0.148931	   -0.070123	   -0.219054	   -0.065426	    0.013605	   -0.051820	   -0.163222	   -0.012629	   -0.175851	   -0.168991	   -0.086529	   -0.255519	    0.012933	   -0.016856	   -0.003923	   -0.000069	    0.005205	    0.005136	    0.004856	    0.015192	    0.020048	   -0.002741	   -0.019794	   -0.022534	    0.048901	    0.085806	    0.134707	    0.142694	    0.164856	    0.307550	   -0.015530	    0.028489	    0.012960	   -0.040972	   -0.028246	   -0.069219	   -0.001974	   -0.002997	   -0.004971
     2.025	0	0	    0	    0.058559	    0.066521	    0.125080	   -0.088167	    0.013416	   -0.074750	   -0.030638	    0.127885	    0.097246	    0.071066	    0.255891	    0.326957	   -0.231098	   -0.007526	   -0.238624	   -0.273834	   -0.056317	   -0.330151	    0.058896	    0.041092	    0.099989	   -0.015750	   -0.014262	   -0.030012	    0.007533	    0.000118	    0.007651	   -0.152868	   -0.066894	   -0.219762	   -0.068533	    0.014073	   -0.054460	   -0.164929	   -0.011950	   -0.176879	   -0.170535	   -0.085906	   -0.256441	    0.011363	   -0.020172	   -0.008810	    0.000783	    0.003390	    0.004173	    0.003943	    0.014946	    0.018889	   -0.002622	   -0.022927	   -0.025548	    0.043127	    0.084405	    0.127532	    0.135826	    0.163935	    0.299761	   -0.021129	    0.027552	    0.006424	   -0.045206	   -0.026735	   -0.071941	   -0.001717	   -0.005691	   -0.007408
     2.100	0	0	    0	    0.055493	    0.065756	    0.121249	   -0.090913	    0.013070	   -0.077842	   -0.031779	    0.128034	    0.096255	    0.069521	    0.254974	    0.324495	   -0.226330	   -0.003876	   -0.230206	   -0.270914	   -0.056468	   -0.327382	    0.060544	    0.038002	    0.098546	   -0.017518	   -0.013676	   -0.031193	    0.006372	    0.000193	    0.006564	   -0.156494	   -0.066824	   -0.223318	   -0.069121	    0.013420	   -0.055701	   -0.166127	   -0.010498	   -0.176625	   -0.174092	   -0.086262	   -0.260354	    0.009504	   -0.018365	   -0.008862	    0.001049	    0.002696	    0.003746	    0.002874	    0.014886	    0.017760	   -0.007977	   -0.022093	   -0.030070	    0.034346	    0.085771	    0.120117	    0.127174	    0.164559	    0.291733	   -0.028249	    0.027290	   -0.000959	   -0.047822	   -0.029208	   -0.077030	   -0.005284	   -0.003064	   -0.008348
     2.175	0	0	    0	    0.053620	    0.065361	    0.118981	   -0.094363	    0.014714	   -0.079649	   -0.033996	    0.128138	    0.094142	    0.069045	    0.253658	    0.322703	   -0.225433	   -0.000749	   -0.226182	   -0.268537	   -0.050835	   -0.319372	    0.048759	    0.048684	    0.097443	   -0.019432	   -0.013081	   -0.032513	    0.003780	    0.000578	    0.004358	   -0.160254	   -0.064724	   -0.224978	   -0.072463	    0.013364	   -0.059099	   -0.167783	   -0.009877	   -0.177660	   -0.177213	   -0.082890	   -0.260103	    0.001024	   -0.012740	   -0.011715	   -0.002016	    0.005293	    0.003277	    0.001752	    0.014719	    0.016471	   -0.012480	   -0.021895	   -0.034375	    0.027921	    0.084309	    0.112230	    0.120013	    0.163004	    0.283017	   -0.038509	    0.029564	   -0.008944	   -0.054042	   -0.026494	   -0.080536	   -0.005134	   -0.003530	   -0.008664
     2.250	0	0	    0	    0.055483	    0.063365	    0.118848	   -0.095930	    0.013836	   -0.082094	   -0.035173	    0.126744	    0.091572	    0.068414	    0.251825	    0.320239	   -0.222580	    0.001776	   -0.220804	   -0.261850	   -0.051879	   -0.313729	    0.051745	    0.041343	    0.093089	   -0.015495	   -0.015015	   -0.030510	    0.001166	    0.000215	    0.001381	   -0.162766	   -0.065502	   -0.228268	   -0.075681	    0.014015	   -0.061666	   -0.166168	   -0.010443	   -0.176611	   -0.180635	   -0.082832	   -0.263466	    0.004037	   -0.021084	   -0.017047	   -0.002201	    0.003997	    0.001796	    0.000514	    0.014783	    0.015297	   -0.016200	   -0.024628	   -0.040828	    0.022377	    0.083244	    0.105621	    0.112464	    0.161725	    0.274189	   -0.046643	    0.029260	   -0.017383	   -0.059528	   -0.027417	   -0.086945	   -0.006636	   -0.004676	   -0.011311
     2.325	0	0	    0	    0.058101	    0.064867	    0.122968	   -0.089319	    0.014147	   -0.075172	   -0.034128	    0.127424	    0.093297	    0.072417	    0.251695	    0.324113	   -0.215966	    0.004264	   -0.211702	   -0.256223	   -0.048005	   -0.304228	    0.060890	    0.042285	    0.103176	   -0.012674	   -0.012472	   -0.025145	    0.009017	   -0.001085	    0.007931	   -0.152628	   -0.064371	   -0.216999	   -0.068363	    0.012092	   -0.056271	   -0.157329	   -0.008311	   -0.165641	   -0.167302	   -0.084235	   -0.251537	    0.014089	   -0.016985	   -0.002896	    0.002541	    0.004652	    0.007194	    0.004526	    0.013657	    0.018183	   -0.005554	   -0.025734	   -0.031289	    0.042034	    0.083793	    0.125827	    0.134265	    0.161301	    0.295566	   -0.030636	    0.022206	   -0.008430	   -0.046845	   -0.029361	   -0.076206	   -0.001854	   -0.004519	   -0.006372
     2.400	0	0	    0	    0.058063	    0.065344	    0.123407	   -0.086885	    0.016732	   -0.070152	   -0.030724	    0.128195	    0.097471	    0.072112	    0.252000	    0.324112	   -0.214625	    0.007711	   -0.206914	   -0.250327	   -0.041933	   -0.292260	    0.064668	    0.037874	    0.102542	   -0.011630	   -0.012813	   -0.024443	    0.010664	    0.003210	    0.013874	   -0.148394	   -0.059759	   -0.208153	   -0.066266	    0.015137	   -0.051129	   -0.156429	   -0.006740	   -0.163169	   -0.158512	   -0.075081	   -0.233593	    0.014717	   -0.016280	   -0.001563	    0.001036	    0.007529	    0.008566	    0.006101	    0.015163	    0.021264	    0.000457	   -0.018628	   -0.018171	    0.044963	    0.090991	    0.135954	    0.138833	    0.169078	    0.307911	   -0.023933	    0.035814	    0.011881	   -0.039550	   -0.022375	   -0.061925	   -0.001505	   -0.005373	   -0.006878
     2.475	0	0	    0	    0.058099	    0.065551	    0.123650	   -0.086502	    0.018315	   -0.068188	   -0.029728	    0.128843	    0.099115	    0.073118	    0.249454	    0.322572	   -0.208556	    0.011672	   -0.196884	   -0.242676	   -0.042450	   -0.285127	    0.066988	    0.033010	    0.099998	   -0.010170	   -0.010288	   -0.020458	    0.011435	    0.004459	    0.015894	   -0.146620	   -0.057326	   -0.203946	   -0.065436	    0.016111	   -0.049325	   -0.154349	   -0.005572	   -0.159921	   -0.157137	   -0.071880	   -0.229017	    0.019087	   -0.020836	   -0.001749	    0.001460	    0.006270	    0.007730	    0.005867	    0.015799	    0.021666	    0.001911	   -0.018215	   -0.016305	    0.041478	    0.092762	    0.134240	    0.134879	    0.169935	    0.304814	   -0.023716	    0.037079	    0.013363	   -0.041303	   -0.019296	   -0.060599	   -0.002990	   -0.005288	   -0.008279
     2.550	0	0	    0	    0.058208	    0.065355	    0.123562	   -0.087774	    0.018900	   -0.068874	   -0.030437	    0.127516	    0.097080	    0.072989	    0.248179	    0.321169	   -0.202846	    0.014104	   -0.188741	   -0.235894	   -0.035207	   -0.271100	    0.061036	    0.039400	    0.100436	   -0.008056	   -0.008608	   -0.016663	    0.009302	    0.004765	    0.014067	   -0.146890	   -0.055289	   -0.202179	   -0.065910	    0.015678	   -0.050231	   -0.152166	   -0.004510	   -0.156676	   -0.155438	   -0.070497	   -0.225935	    0.012697	   -0.013735	   -0.001038	    0.004431	    0.003599	    0.008030	    0.005316	    0.015612	    0.020928	   -0.001589	   -0.017755	   -0.019344	    0.039157	    0.091116	    0.130274	    0.132737	    0.167131	    0.299868	   -0.030670	    0.038420	    0.007750	   -0.042308	   -0.019531	   -0.061839	   -0.000983	   -0.005636	   -0.006619
     2.625	0	0	    0	    0.058257	    0.064304	    0.122561	   -0.086962	    0.018116	   -0.068846	   -0.030676	    0.127579	    0.096902	    0.075077	    0.243948	    0.319025	   -0.201103	    0.018122	   -0.182980	   -0.230778	   -0.034452	   -0.265230	    0.061825	    0.034698	    0.096523	   -0.008086	   -0.006725	   -0.014812	    0.010524	    0.003764	    0.014287	   -0.146169	   -0.054999	   -0.201168	   -0.065074	    0.016305	   -0.048769	   -0.151852	   -0.003699	   -0.155552	   -0.152520	   -0.068359	   -0.220879	    0.016250	   -0.016727	   -0.000476	    0.002013	    0.004864	    0.006877	    0.005903	    0.015336	    0.021239	    0.000539	   -0.019655	   -0.019115	    0.038138	    0.091050	    0.129187	    0.130019	    0.169088	    0.299107	   -0.028474	    0.035854	    0.007380	   -0.041568	   -0.021136	   -0.062705	   -0.002762	   -0.004087	   -0.006850
     2.700	0	0	    0	    0.054817	    0.064699	    0.119516	   -0.089500	    0.019103	   -0.070397	   -0.031798	    0.127210	    0.095412	    0.074565	    0.243545	    0.318110	   -0.196284	    0.019735	   -0.176549	   -0.227129	   -0.033290	   -0.260419	    0.059744	    0.034709	    0.094453	   -0.008241	   -0.005614	   -0.013855	    0.009712	    0.003882	    0.013594	   -0.149228	   -0.053174	   -0.202401	   -0.066219	    0.016153	   -0.050066	   -0.151677	   -0.001540	   -0.153217	   -0.153974	   -0.066310	   -0.220284	    0.014172	   -0.017488	   -0.003315	    0.002219	    0.005176	    0.007395	    0.005439	    0.015405	    0.020844	   -0.004537	   -0.016609	   -0.021145	    0.031765	    0.092041	    0.123805	    0.124193	    0.169311	    0.293504	   -0.033992	    0.038633	    0.004641	   -0.044867	   -0.020748	   -0.065615	   -0.004216	   -0.003493	   -0.007708
     2.775	0	0	    0	    0.052315	    0.063830	    0.116145	   -0.091355	    0.019371	   -0.071983	   -0.031692	    0.124882	    0.093190	    0.074685	    0.240477	    0.315162	   -0.193285	    0.024692	   -0.168593	   -0.220700	   -0.031284	   -0.251984	    0.056728	    0.034196	    0.090924	   -0.010108	   -0.004736	   -0.014845	    0.007989	    0.002856	    0.010845	   -0.151959	   -0.051182	   -0.203141	   -0.069016	    0.016768	   -0.052248	   -0.152676	   -0.000229	   -0.152905	   -0.155890	   -0.065909	   -0.221798	    0.010602	   -0.019254	   -0.008651	    0.003470	    0.002509	    0.005979	    0.004457	    0.014945	    0.019401	   -0.005325	   -0.020698	   -0.026023	    0.025845	    0.089204	    0.115050	    0.116726	    0.166688	    0.283414	   -0.039602	    0.036510	   -0.003091	   -0.048492	   -0.021562	   -0.070054	   -0.003425	   -0.006923	   -0.010349
     2.850	0	0	    0	    0.049393	    0.061579	    0.110972	   -0.093178	    0.019519	   -0.073659	   -0.034136	    0.125376	    0.091240	    0.072085	    0.240066	    0.312151	   -0.190345	    0.028438	   -0.161906	   -0.213671	   -0.028169	   -0.241840	    0.053623	    0.030844	    0.084467	   -0.011703	   -0.006258	   -0.017961	    0.005346	    0.002945	    0.008291	   -0.153690	   -0.051445	   -0.205135	   -0.070898	    0.016339	   -0.054559	   -0.154494	    0.000149	   -0.154345	   -0.158153	   -0.065214	   -0.223368	    0.010380	   -0.021988	   -0.011608	    0.000147	    0.003646	    0.003792	    0.003397	    0.014707	    0.018104	   -0.011204	   -0.020424	   -0.031628	    0.017538	    0.089012	    0.106550	    0.109401	    0.165089	    0.274490	   -0.048148	    0.037548	   -0.010601	   -0.052944	   -0.021721	   -0.074665	   -0.003972	   -0.007172	   -0.011144
     2.925	0	0	    0	    0.046463	    0.059823	    0.106286	   -0.095437	    0.020863	   -0.074574	   -0.034619	    0.124443	    0.089824	    0.069547	    0.239996	    0.309543	   -0.187453	    0.033677	   -0.153776	   -0.209479	   -0.026513	   -0.235992	    0.049049	    0.032375	    0.081423	   -0.013997	   -0.007519	   -0.021517	    0.002873	    0.002216	    0.005089	   -0.156998	   -0.049766	   -0.206765	   -0.072933	    0.016701	   -0.056232	   -0.156778	    0.002382	   -0.154396	   -0.161318	   -0.064800	   -0.226117	    0.003615	   -0.019670	   -0.016055	   -0.001060	    0.004519	    0.003459	    0.002242	    0.014551	    0.016793	   -0.013684	   -0.021915	   -0.035599	    0.010207	    0.088249	    0.098457	    0.099703	    0.165545	    0.265247	   -0.054285	    0.036322	   -0.017963	   -0.056991	   -0.022818	   -0.079809	   -0.007908	   -0.004743	   -0.012650
     3.000	0	0	    0	    0.043725	    0.059176	    0.102900	   -0.096987	    0.021109	   -0.075878	   -0.034502	    0.121658	    0.087156	    0.066165	    0.237830	    0.303995	   -0.181919	    0.040715	   -0.141204	   -0.201853	   -0.024664	   -0.226518	    0.046819	    0.033177	    0.079996	   -0.019235	   -0.012152	   -0.031387	   -0.001025	    0.002504	    0.001479	   -0.158657	   -0.050528	   -0.209185	   -0.072975	    0.016150	   -0.056825	   -0.157696	    0.003843	   -0.153853	   -0.163618	   -0.064942	   -0.228560	    0.006220	   -0.023166	   -0.016945	    0.002032	    0.002009	    0.004041	   -0.000379	    0.015112	    0.014733	   -0.018984	   -0.020576	   -0.039559	    0.002033	    0.086512	    0.088545	    0.090541	    0.163324	    0.253865	   -0.062475	    0.037410	   -0.025065	   -0.061668	   -0.022321	   -0.083989	   -0.005976	   -0.006756	   -0.012732
     3.075	0	0	    0	    0.050434	    0.058508	    0.108943	   -0.089764	    0.021088	   -0.068676	   -0.032611	    0.119028	    0.086417	    0.071549	    0.231169	    0.302718	   -0.175509	    0.043154	   -0.132355	   -0.190159	   -0.020699	   -0.210858	    0.049514	    0.033734	    0.083248	   -0.015776	   -0.022512	   -0.038288	   -0.001329	    0.001447	    0.000118	   -0.150459	   -0.048210	   -0.198669	   -0.069220	    0.015887	   -0.053334	   -0.145278	    0.003183	   -0.142095	   -0.157339	   -0.065591	   -0.222930	    0.011755	   -0.022211	   -0.010457	    0.007033	    0.001077	    0.008110	   -0.002431	    0.011672	    0.009241	   -0.012459	   -0.023431	   -0.035890	    0.014713	    0.081488	    0.096200	    0.104701	    0.155264	    0.259965	   -0.059853	    0.032531	   -0.027322	   -0.056170	   -0.025839	   -0.082010	   -0.004998	   -0.009472	   -0.014471
     3.150	0	0	    0	    0.053314	    0.058543	    0.111857	   -0.079137	    0.023379	   -0.055758	   -0.025517	    0.117169	    0.091652	    0.074936	    0.225646	    0.300582	   -0.166403	    0.048366	   -0.118037	   -0.178726	   -0.017606	   -0.196332	    0.055242	    0.026254	    0.081496	   -0.016820	   -0.026488	   -0.043307	    0.005464	   -0.000170	    0.005294	   -0.133124	   -0.046867	   -0.179991	   -0.060450	    0.019209	   -0.041241	   -0.137699	    0.007021	   -0.130678	   -0.140330	   -0.060491	   -0.200821	    0.015308	   -0.018246	   -0.002938	   -0.000276	    0.000692	    0.000417	   -0.000836	    0.009401	    0.008565	    0.001913	   -0.014408	   -0.012494	    0.023869	    0.088011	    0.111879	    0.116249	    0.162299	    0.278548	   -0.037626	    0.038503	    0.000877	   -0.041599	   -0.019899	   -0.061498	   -0.009593	   -0.011211	   -0.020805
     3.225	0	0	    0	    0.053609	    0.062553	    0.116163	   -0.074999	    0.026360	   -0.048639	   -0.022497	    0.116708	    0.094211	    0.074807	    0.226268	    0.301076	   -0.157780	    0.051288	   -0.106493	   -0.181531	   -0.013554	   -0.195085	    0.032676	    0.017860	    0.050536	   -0.018129	   -0.029372	   -0.047501	    0.005439	   -0.000727	    0.004712	   -0.132852	   -0.040180	   -0.173032	   -0.057843	    0.020030	   -0.037813	   -0.131763	    0.008713	   -0.123050	   -0.132886	   -0.052847	   -0.185733	    0.010997	   -0.029613	   -0.018616	   -0.017546	   -0.021731	   -0.039278	   -0.008509	    0.008093	   -0.000415	    0.006408	   -0.009153	   -0.002745	    0.025214	    0.089326	    0.114540	    0.118424	    0.164570	    0.282994	   -0.034206	    0.043851	    0.009645	   -0.035861	   -0.010996	   -0.046858	   -0.007437	   -0.015974	   -0.023412
     3.300	0	0	    0	    0.053658	    0.063651	    0.117309	   -0.074679	    0.028879	   -0.045800	   -0.023704	    0.118143	    0.094439	    0.076083	    0.223272	    0.299355	   -0.155879	    0.054872	   -0.101007	   -0.181849	   -0.011309	   -0.193158	    0.022576	    0.014387	    0.036963	   -0.016845	   -0.030505	   -0.047349	    0.001794	   -0.002497	   -0.000703	   -0.132237	   -0.038330	   -0.170567	   -0.056740	    0.021666	   -0.035074	   -0.129503	    0.011140	   -0.118364	   -0.130996	   -0.047617	   -0.178613	    0.004499	   -0.035067	   -0.030568	   -0.027842	   -0.034999	   -0.062841	   -0.014128	    0.000448	   -0.013680	    0.007245	   -0.006727	    0.000518	    0.020890	    0.088629	    0.109519	    0.113355	    0.163683	    0.277038	   -0.035599	    0.046270	    0.010670	   -0.036440	   -0.006839	   -0.043279	   -0.007817	   -0.015806	   -0.023623
     3.375	0	0	    0	    0.050261	    0.062835	    0.113096	   -0.073656	    0.029020	   -0.044636	   -0.022949	    0.116712	    0.093762	    0.074761	    0.221050	    0.295810	   -0.153335	    0.056507	   -0.096828	   -0.184503	   -0.013700	   -0.198203	    0.022748	    0.008407	    0.031155	   -0.018016	   -0.030380	   -0.048396	    0.002909	   -0.004749	   -0.001839	   -0.130196	   -0.038687	   -0.168883	   -0.055048	    0.021800	   -0.033248	   -0.127453	    0.012077	   -0.115375	   -0.130047	   -0.047306	   -0.177353	    0.003607	   -0.041918	   -0.038311	   -0.030846	   -0.046552	   -0.077398	   -0.015480	   -0.002382	   -0.017863	    0.007785	   -0.008350	   -0.000566	    0.020162	    0.086434	    0.106596	    0.111920	    0.162331	    0.274251	   -0.035624	    0.045005	    0.009381	   -0.036798	   -0.007201	   -0.043999	   -0.010109	   -0.015209	   -0.025318
     3.450	0	0	    0	    0.044037	    0.059313	    0.103350	   -0.072874	    0.028364	   -0.044511	   -0.020381	    0.113978	    0.093597	    0.071467	    0.217958	    0.289425	   -0.151023	    0.057023	   -0.094000	   -0.181179	   -0.014384	   -0.195563	    0.023853	   -0.000194	    0.023660	   -0.020379	   -0.030459	   -0.050838	    0.003515	   -0.004274	   -0.000759	   -0.127022	   -0.036702	   -0.163723	   -0.054283	    0.022727	   -0.031555	   -0.127442	    0.011948	   -0.115494	   -0.127448	   -0.045642	   -0.173090	    0.000937	   -0.046085	   -0.045147	   -0.028048	   -0.048842	   -0.076890	   -0.011880	   -0.004304	   -0.016184	    0.003690	   -0.006400	   -0.002709	    0.015280	    0.086340	    0.101620	    0.106961	    0.161579	    0.268541	   -0.036645	    0.046762	    0.010117	   -0.038141	   -0.006462	   -0.044603	   -0.009971	   -0.019867	   -0.029838
     3.525	0	0	    0	    0.041343	    0.053658	    0.095002	   -0.075115	    0.028723	   -0.046391	   -0.021534	    0.114309	    0.092775	    0.070038	    0.212530	    0.282568	   -0.146258	    0.056250	   -0.090008	   -0.174454	   -0.011855	   -0.186309	    0.015579	    0.002461	    0.018039	   -0.022030	   -0.031263	   -0.053292	    0.002416	   -0.002452	   -0.000035	   -0.129594	   -0.033477	   -0.163072	   -0.057184	    0.022267	   -0.034917	   -0.128473	    0.010206	   -0.118267	   -0.128587	   -0.045354	   -0.173941	   -0.006296	   -0.043522	   -0.049818	   -0.020666	   -0.049002	   -0.069669	   -0.003107	    0.001939	   -0.001168	   -0.003095	   -0.010198	   -0.013293	    0.010731	    0.083883	    0.094614	    0.101474	    0.159194	    0.260668	   -0.041556	    0.046329	    0.004773	   -0.042447	   -0.007878	   -0.050325	   -0.012822	   -0.020591	   -0.033413
     3.600	0	0	    0	    0.037172	    0.052489	    0.089661	   -0.075927	    0.026969	   -0.048958	   -0.020627	    0.112103	    0.091476	    0.069132	    0.207265	    0.276397	   -0.140505	    0.057152	   -0.083353	   -0.157813	   -0.009139	   -0.166952	    0.023534	   -0.002636	    0.020898	   -0.022710	   -0.030405	   -0.053115	   -0.000278	   -0.000358	   -0.000636	   -0.130144	   -0.034477	   -0.164622	   -0.059734	    0.022424	   -0.037310	   -0.128176	    0.008343	   -0.119834	   -0.130765	   -0.045074	   -0.175839	    0.001079	   -0.045417	   -0.044338	   -0.018619	   -0.036203	   -0.054822	   -0.000860	    0.007040	    0.006179	   -0.007124	   -0.012831	   -0.019955	    0.004249	    0.084105	    0.088354	    0.092902	    0.159181	    0.252083	   -0.047242	    0.044530	   -0.002712	   -0.046758	   -0.011320	   -0.058078	   -0.016560	   -0.017498	   -0.034058
     3.675	0	0	    0	    0.035420	    0.050514	    0.085934	   -0.078169	    0.027714	   -0.050455	   -0.022060	    0.112305	    0.090245	    0.069080	    0.201865	    0.270945	   -0.136066	    0.057079	   -0.078987	   -0.149903	   -0.003336	   -0.153239	    0.020565	    0.003388	    0.023953	   -0.022425	   -0.030030	   -0.052455	   -0.004133	    0.000111	   -0.004023	   -0.132940	   -0.033339	   -0.166279	   -0.061689	    0.022706	   -0.038983	   -0.127102	    0.006687	   -0.120415	   -0.134024	   -0.045138	   -0.179162	   -0.004806	   -0.039634	   -0.044440	   -0.014534	   -0.030536	   -0.045070	   -0.001643	    0.007945	    0.006302	   -0.012054	   -0.013022	   -0.025076	   -0.001715	    0.082349	    0.080635	    0.084732	    0.156549	    0.241280	   -0.053893	    0.042682	   -0.011212	   -0.051746	   -0.013971	   -0.065717	   -0.016978	   -0.019325	   -0.036303
     3.750	0	0	    0	    0.033261	    0.047146	    0.080407	   -0.081389	    0.028241	   -0.053148	   -0.024009	    0.112155	    0.088145	    0.067689	    0.199579	    0.267268	   -0.135036	    0.058721	   -0.076315	   -0.140851	    0.000300	   -0.140551	    0.022356	    0.006848	    0.029203	   -0.020679	   -0.031477	   -0.052157	   -0.006015	    0.000051	   -0.005964	   -0.136170	   -0.032096	   -0.168266	   -0.065002	    0.022892	   -0.042110	   -0.128369	    0.007463	   -0.120906	   -0.136906	   -0.045602	   -0.182508	   -0.006330	   -0.035848	   -0.042178	   -0.011720	   -0.023648	   -0.035367	   -0.003513	    0.008282	    0.004770	   -0.013836	   -0.014514	   -0.028350	   -0.007063	    0.081290	    0.074227	    0.079910	    0.152977	    0.232887	   -0.060771	    0.041332	   -0.019439	   -0.055236	   -0.016635	   -0.071871	   -0.016014	   -0.016658	   -0.032672
     3.825	0	0	    0	    0.036489	    0.046702	    0.083191	   -0.077378	    0.026710	   -0.050668	   -0.022490	    0.111545	    0.089055	    0.070289	    0.197876	    0.268165	   -0.130218	    0.059732	   -0.070486	   -0.133364	    0.001349	   -0.132015	    0.034867	    0.003565	    0.038431	   -0.012030	   -0.027387	   -0.039416	   -0.002554	   -0.002165	   -0.004719	   -0.130084	   -0.034540	   -0.164624	   -0.060077	    0.020825	   -0.039253	   -0.120492	    0.007021	   -0.113471	   -0.131307	   -0.049334	   -0.180641	    0.006355	   -0.037267	   -0.030912	   -0.002799	   -0.020229	   -0.023028	   -0.002195	    0.005426	    0.003231	   -0.009986	   -0.018719	   -0.028706	    0.007311	    0.077913	    0.085225	    0.093323	    0.149780	    0.243104	   -0.055676	    0.033153	   -0.022524	   -0.048291	   -0.022795	   -0.071087	   -0.011219	   -0.016106	   -0.027324
     3.900	0	0	    0	    0.035595	    0.046123	    0.081718	   -0.068809	    0.028007	   -0.040801	   -0.014390	    0.113359	    0.098970	    0.071753	    0.198053	    0.269806	   -0.122355	    0.062195	   -0.060160	   -0.122069	    0.006230	   -0.115839	    0.030823	    0.018747	    0.049570	   -0.008368	   -0.018024	   -0.026392	    0.004091	    0.001285	    0.005377	   -0.115795	   -0.029409	   -0.145204	   -0.051375	    0.023031	   -0.028344	   -0.114231	    0.009414	   -0.104817	   -0.114398	   -0.042623	   -0.157022	    0.009805	   -0.028069	   -0.018264	   -0.000487	   -0.012296	   -0.012782	    0.002165	    0.007335	    0.009499	    0.002842	   -0.013344	   -0.010503	    0.018459	    0.086141	    0.104601	    0.104481	    0.157454	    0.261935	   -0.036337	    0.040045	    0.003708	   -0.036478	   -0.015530	   -0.052008	   -0.007852	   -0.012669	   -0.020521
     3.975	0	0	    0	    0.037547	    0.043087	    0.080634	   -0.065449	    0.028866	   -0.036583	   -0.010729	    0.114796	    0.104067	    0.074284	    0.194562	    0.268846	   -0.118600	    0.065389	   -0.053212	   -0.107736	    0.012911	   -0.094825	    0.030306	    0.019361	    0.049666	   -0.007753	   -0.014617	   -0.022369	    0.003743	    0.001786	    0.005529	   -0.111533	   -0.024686	   -0.136219	   -0.049273	    0.024073	   -0.025200	   -0.112022	    0.011078	   -0.100944	   -0.107616	   -0.036292	   -0.143908	    0.007530	   -0.024131	   -0.016601	    0.002933	   -0.012079	   -0.009146	    0.004209	    0.009234	    0.013443	    0.005403	   -0.010532	   -0.005129	    0.022294	    0.086412	    0.108706	    0.108227	    0.155801	    0.264028	   -0.032655	    0.043160	    0.010505	   -0.034480	   -0.011167	   -0.045647	   -0.006775	   -0.012709	   -0.019484
     4.050	0	0	    0	    0.036456	    0.042594	    0.079050	   -0.065344	    0.029591	   -0.035753	   -0.008871	    0.114010	    0.105140	    0.073390	    0.195331	    0.268721	   -0.117936	    0.067534	   -0.050401	   -0.099138	    0.011814	   -0.087325	    0.037979	    0.008869	    0.046848	   -0.008049	   -0.015452	   -0.023501	    0.003113	    0.001577	    0.004691	   -0.111428	   -0.023950	   -0.135378	   -0.052749	    0.025217	   -0.027533	   -0.112798	    0.011249	   -0.101549	   -0.106824	   -0.035343	   -0.142167	    0.005986	   -0.027815	   -0.021829	   -0.000240	   -0.006441	   -0.006681	    0.004602	    0.010647	    0.015249	    0.005553	   -0.009958	   -0.004404	    0.020930	    0.088356	    0.109286	    0.104870	    0.156345	    0.261215	   -0.032846	    0.044551	    0.011705	   -0.033499	   -0.012263	   -0.045763	   -0.009528	   -0.009637	   -0.019164
     4.125	0	0	    0	    0.037882	    0.042436	    0.080319	   -0.063922	    0.029206	   -0.034717	   -0.008811	    0.114842	    0.106031	    0.075161	    0.195264	    0.270426	   -0.115455	    0.067396	   -0.048059	   -0.096276	    0.014794	   -0.081482	    0.038924	    0.010997	    0.049922	   -0.007930	   -0.014046	   -0.021975	    0.003616	    0.000808	    0.004424	   -0.111350	   -0.027684	   -0.139034	   -0.053679	    0.021554	   -0.032125	   -0.110358	    0.010092	   -0.100266	   -0.108169	   -0.035890	   -0.144060	    0.009849	   -0.030398	   -0.020549	    0.002142	   -0.006066	   -0.003924	    0.001636	    0.011080	    0.012716	    0.005957	   -0.008039	   -0.002082	    0.024491	    0.088277	    0.112768	    0.105370	    0.158454	    0.263824	   -0.032835	    0.042619	    0.009784	   -0.034972	   -0.010412	   -0.045384	   -0.007754	   -0.010479	   -0.018233
     4.200	0	0	    0	    0.036731	    0.043668	    0.080398	   -0.063979	    0.029901	   -0.034077	   -0.009088	    0.117959	    0.108871	    0.075150	    0.194698	    0.269848	   -0.116113	    0.069884	   -0.046229	   -0.094653	    0.017663	   -0.076990	    0.028421	    0.019276	    0.047698	   -0.008263	   -0.013579	   -0.021842	    0.003331	    0.001322	    0.004653	   -0.111481	   -0.026021	   -0.137502	   -0.054031	    0.022250	   -0.031781	   -0.113032	    0.011724	   -0.101308	   -0.104648	   -0.035828	   -0.140476	    0.004586	   -0.026511	   -0.021925	    0.001246	   -0.004364	   -0.003118	    0.000684	    0.008361	    0.009045	    0.008482	   -0.009147	   -0.000665	    0.021806	    0.089336	    0.111141	    0.102769	    0.158501	    0.261271	   -0.032253	    0.043383	    0.011130	   -0.034848	   -0.008964	   -0.043811	   -0.008605	   -0.009387	   -0.017992
     4.275	0	0	    0	    0.036674	    0.042547	    0.079221	   -0.065841	    0.029836	   -0.036004	   -0.010731	    0.118136	    0.107405	    0.073876	    0.195076	    0.268952	   -0.116947	    0.069997	   -0.046949	   -0.095839	    0.018050	   -0.077789	    0.032607	    0.012913	    0.045520	   -0.008295	   -0.014058	   -0.022352	    0.002088	    0.000519	    0.002606	   -0.114130	   -0.026738	   -0.140868	   -0.056148	    0.021006	   -0.035143	   -0.114444	    0.010177	   -0.104267	   -0.105679	   -0.034914	   -0.140593	    0.006161	   -0.029104	   -0.022943	    0.001011	   -0.004365	   -0.003354	    0.000541	    0.008416	    0.008958	    0.006533	   -0.009276	   -0.002743	    0.017858	    0.088625	    0.106483	    0.097376	    0.158413	    0.255789	   -0.035662	    0.041133	    0.005472	   -0.034794	   -0.012033	   -0.046826	   -0.009836	   -0.008538	   -0.018374
     4.350	0	0	    0	    0.034153	    0.043705	    0.077858	   -0.067725	    0.028933	   -0.038792	   -0.011202	    0.116747	    0.105545	    0.070559	    0.196959	    0.267518	   -0.116555	    0.070669	   -0.045886	   -0.095195	    0.016530	   -0.078665	    0.032838	    0.010182	    0.043020	   -0.008828	   -0.012341	   -0.021169	    0.000208	    0.000956	    0.001165	   -0.115107	   -0.027858	   -0.142965	   -0.058682	    0.022451	   -0.036231	   -0.115234	    0.011290	   -0.103944	   -0.108544	   -0.034055	   -0.142599	    0.003332	   -0.029516	   -0.026184	    0.001152	   -0.002882	   -0.001730	    0.000868	    0.009267	    0.010136	    0.002462	   -0.008863	   -0.006401	    0.012955	    0.086738	    0.099693	    0.091082	    0.155607	    0.246689	   -0.042073	    0.041223	   -0.000850	   -0.038123	   -0.012464	   -0.050586	   -0.007735	   -0.010144	   -0.017879
     4.425	0	0	    0	    0.032418	    0.043090	    0.075508	   -0.070454	    0.028823	   -0.041631	   -0.013404	    0.117173	    0.103769	    0.070092	    0.195320	    0.265411	   -0.117207	    0.072241	   -0.044966	   -0.096908	    0.017296	   -0.079612	    0.026237	    0.013686	    0.039923	   -0.009911	   -0.012052	   -0.021963	   -0.000435	   -0.000466	   -0.000901	   -0.116803	   -0.028113	   -0.144916	   -0.061653	    0.022387	   -0.039267	   -0.117192	    0.011490	   -0.105702	   -0.109254	   -0.034138	   -0.143392	    0.002457	   -0.031278	   -0.028821	   -0.000338	   -0.002185	   -0.002523	    0.000535	    0.009666	    0.010200	   -0.000345	   -0.010874	   -0.011219	    0.006905	    0.085954	    0.092860	    0.084713	    0.154018	    0.238731	   -0.046073	    0.037346	   -0.008726	   -0.040954	   -0.012806	   -0.053760	   -0.009475	   -0.008103	   -0.017578
     4.500	0	0	    0	    0.035829	    0.042035	    0.077864	   -0.069994	    0.026646	   -0.043349	   -0.014074	    0.116299	    0.102225	    0.071087	    0.194060	    0.265147	   -0.114897	    0.072286	   -0.042611	   -0.094579	    0.015261	   -0.079317	    0.033814	    0.006577	    0.040391	   -0.005289	   -0.013081	   -0.018371	   -0.001694	   -0.000280	   -0.001974	   -0.116743	   -0.030821	   -0.147563	   -0.061990	    0.021714	   -0.040276	   -0.111048	    0.009974	   -0.101074	   -0.111600	   -0.034006	   -0.145606	    0.005115	   -0.032173	   -0.027058	    0.001936	   -0.003196	   -0.001260	   -0.000072	    0.009698	    0.009625	   -0.003641	   -0.011814	   -0.015455	    0.008349	    0.082508	    0.090857	    0.085391	    0.149472	    0.234863	   -0.052684	    0.034283	   -0.018401	   -0.043633	   -0.013965	   -0.057597	   -0.006167	   -0.011181	   -0.017348
     4.575	0	0	    0	    0.040785	    0.042182	    0.082967	   -0.059920	    0.026705	   -0.033215	   -0.008366	    0.115741	    0.107375	    0.076732	    0.193207	    0.269939	   -0.110976	    0.073539	   -0.037437	   -0.087442	    0.017412	   -0.070030	    0.042048	    0.011657	    0.053705	   -0.002130	   -0.011022	   -0.013151	    0.005989	    0.000430	    0.006418	   -0.102716	   -0.029211	   -0.131927	   -0.052932	    0.022899	   -0.030033	   -0.104501	    0.014482	   -0.090019	   -0.097073	   -0.031878	   -0.128951	    0.019017	   -0.030019	   -0.011002	    0.004089	   -0.001063	    0.003027	    0.004603	    0.009891	    0.014494	    0.009124	   -0.011903	   -0.002778	    0.027179	    0.085951	    0.113130	    0.104798	    0.153510	    0.258308	   -0.032453	    0.032650	    0.000197	   -0.030428	   -0.013558	   -0.043985	   -0.005258	   -0.006990	   -0.012248
     4.650	0	0	    0	    0.040165	    0.043534	    0.083698	   -0.055687	    0.027375	   -0.028312	   -0.004840	    0.117297	    0.112457	    0.075503	    0.195852	    0.271355	   -0.108541	    0.074275	   -0.034267	   -0.083443	    0.019233	   -0.064210	    0.045343	    0.007539	    0.052882	   -0.002276	   -0.009953	   -0.012229	    0.008527	    0.001733	    0.010259	   -0.097647	   -0.026691	   -0.124338	   -0.048708	    0.024136	   -0.024573	   -0.101121	    0.015320	   -0.085801	   -0.090844	   -0.027302	   -0.118147	    0.020076	   -0.031507	   -0.011431	    0.004187	   -0.000323	    0.003864	    0.006130	    0.011238	    0.017367	    0.013422	   -0.008275	    0.005147	    0.030536	    0.089719	    0.120255	    0.109798	    0.155961	    0.265760	   -0.024604	    0.038547	    0.013943	   -0.026766	   -0.009074	   -0.035841	   -0.004150	   -0.006566	   -0.010716
     4.725	0	0	    0	    0.039481	    0.042916	    0.082396	   -0.054962	    0.028964	   -0.025997	   -0.004372	    0.119167	    0.114795	    0.076498	    0.194961	    0.271459	   -0.106565	    0.075851	   -0.030714	   -0.081631	    0.021447	   -0.060184	    0.036459	    0.015877	    0.052336	   -0.002487	   -0.011277	   -0.013764	    0.010271	    0.001431	    0.011702	   -0.096255	   -0.025433	   -0.121688	   -0.047641	    0.023790	   -0.023851	   -0.100529	    0.016501	   -0.084028	   -0.085921	   -0.028108	   -0.114029	    0.015569	   -0.026963	   -0.011394	    0.004771	   -0.000754	    0.004017	    0.007258	    0.011430	    0.018688	    0.015980	   -0.007998	    0.007982	    0.031253	    0.089465	    0.120718	    0.108297	    0.157506	    0.265804	   -0.020531	    0.036778	    0.016247	   -0.024315	   -0.009465	   -0.033780	   -0.003402	   -0.006706	   -0.010108
     4.800	0	0	    0	    0.042172	    0.040591	    0.082763	   -0.054292	    0.027523	   -0.026769	   -0.003412	    0.117118	    0.113706	    0.076971	    0.193489	    0.270460	   -0.104755	    0.075714	   -0.029041	   -0.079735	    0.021040	   -0.058694	    0.040365	    0.008589	    0.048954	   -0.002347	   -0.011587	   -0.013933	    0.009022	    0.002066	    0.011088	   -0.094855	   -0.026793	   -0.121648	   -0.048042	    0.025765	   -0.022277	   -0.098510	    0.015231	   -0.083279	   -0.087600	   -0.027798	   -0.115398	    0.013776	   -0.025798	   -0.012021	    0.005492	   -0.001145	    0.004346	    0.006642	    0.012093	    0.018735	    0.013251	   -0.006688	    0.006563	    0.029938	    0.088376	    0.118314	    0.107474	    0.154950	    0.262424	   -0.022745	    0.035623	    0.012878	   -0.025774	   -0.010727	   -0.036501	   -0.001585	   -0.007275	   -0.008860
     4.875	0	0	    0	    0.039770	    0.042268	    0.082038	   -0.053742	    0.027677	   -0.026064	   -0.003189	    0.117931	    0.114742	    0.076476	    0.194985	    0.271460	   -0.103851	    0.076932	   -0.026918	   -0.079547	    0.022389	   -0.057158	    0.041487	    0.010243	    0.051730	   -0.003534	   -0.010915	   -0.014449	    0.010134	    0.001073	    0.011207	   -0.096472	   -0.026512	   -0.122983	   -0.048166	    0.025040	   -0.023127	   -0.098822	    0.015750	   -0.083072	   -0.086500	   -0.028574	   -0.115074	    0.013592	   -0.026802	   -0.013210	    0.006357	   -0.000225	    0.006132	    0.007250	    0.012337	    0.019588	    0.015230	   -0.008146	    0.007084	    0.031269	    0.088884	    0.120153	    0.108440	    0.156045	    0.264485	   -0.022020	    0.034921	    0.012901	   -0.025251	   -0.011686	   -0.036937	   -0.001339	   -0.006032	   -0.007371
     4.950	0	0	    0	    0.037325	    0.041270	    0.078595	   -0.054594	    0.027180	   -0.027414	   -0.002908	    0.117541	    0.114634	    0.074567	    0.193916	    0.268483	   -0.104326	    0.077838	   -0.026488	   -0.078124	    0.021608	   -0.056516	    0.038689	    0.004422	    0.043112	   -0.005248	   -0.011779	   -0.017027	    0.008960	    0.000895	    0.009854	   -0.096399	   -0.026872	   -0.123271	   -0.050679	    0.025952	   -0.024727	   -0.101239	    0.016115	   -0.085124	   -0.086903	   -0.027670	   -0.114574	    0.012635	   -0.029657	   -0.017022	    0.007063	   -0.003431	    0.003632	    0.006417	    0.012740	    0.019156	    0.011534	   -0.005997	    0.005538	    0.025431	    0.088761	    0.114192	    0.101820	    0.155617	    0.257436	   -0.026108	    0.035025	    0.008917	   -0.027965	   -0.011465	   -0.039429	   -0.001918	   -0.006377	   -0.008295
     5.025	0	0	    0	    0.034725	    0.042245	    0.076971	   -0.056731	    0.026668	   -0.030063	   -0.006031	    0.118910	    0.112879	    0.074103	    0.193852	    0.267956	   -0.103824	    0.077778	   -0.026046	   -0.078921	    0.021689	   -0.057232	    0.031189	    0.011382	    0.042570	   -0.005324	   -0.012470	   -0.017794	    0.006493	    0.000782	    0.007275	   -0.098200	   -0.028807	   -0.127007	   -0.052214	    0.026056	   -0.026157	   -0.102686	    0.015707	   -0.086978	   -0.089361	   -0.027925	   -0.117287	    0.008481	   -0.028030	   -0.019549	    0.004262	    0.000135	    0.004396	    0.005767	    0.012510	    0.018277	    0.009715	   -0.008955	    0.000760	    0.021551	    0.085945	    0.107497	    0.096260	    0.154047	    0.250307	   -0.030334	    0.032884	    0.002549	   -0.030456	   -0.012679	   -0.043135	   -0.003340	   -0.004852	   -0.008193
     5.100	0	0	    0	    0.033969	    0.041010	    0.074979	   -0.058615	    0.025752	   -0.032864	   -0.007240	    0.117863	    0.110623	    0.071961	    0.193676	    0.265637	   -0.104125	    0.077617	   -0.026508	   -0.080489	    0.022745	   -0.057744	    0.029014	    0.009968	    0.038982	   -0.007499	   -0.011899	   -0.019398	    0.003945	    0.001007	    0.004952	   -0.102103	   -0.028065	   -0.130168	   -0.054269	    0.025130	   -0.029139	   -0.105772	    0.015281	   -0.090491	   -0.093050	   -0.028307	   -0.121357	    0.005881	   -0.027932	   -0.022051	    0.003821	   -0.000566	    0.003255	    0.004258	    0.012911	    0.017169	    0.006893	   -0.009322	   -0.002429	    0.016563	    0.085173	    0.101736	    0.091061	    0.152135	    0.243195	   -0.034928	    0.030069	   -0.004860	   -0.034798	   -0.012159	   -0.046958	   -0.003318	   -0.004632	   -0.007950
     5.175	0	0	    0	    0.031179	    0.040739	    0.071917	   -0.060550	    0.025417	   -0.035133	   -0.008235	    0.117291	    0.109055	    0.069880	    0.192866	    0.262746	   -0.104881	    0.077760	   -0.027120	   -0.080934	    0.021500	   -0.059434	    0.025637	    0.010907	    0.036544	   -0.009210	   -0.012032	   -0.021242	    0.002649	    0.000298	    0.002947	   -0.103819	   -0.029059	   -0.132878	   -0.056373	    0.025083	   -0.031291	   -0.107214	    0.015271	   -0.091943	   -0.094990	   -0.030105	   -0.125095	    0.002843	   -0.026775	   -0.023933	    0.002159	    0.000201	    0.002360	    0.003662	    0.012470	    0.016132	    0.003175	   -0.009729	   -0.006554	    0.010981	    0.084330	    0.095311	    0.084773	    0.151051	    0.235824	   -0.038727	    0.027855	   -0.010873	   -0.037046	   -0.014331	   -0.051377	   -0.004543	   -0.002956	   -0.007499
     5.250	0	0	    0	    0.033398	    0.038934	    0.072332	   -0.062823	    0.024288	   -0.038535	   -0.010366	    0.117499	    0.107132	    0.070459	    0.192063	    0.262523	   -0.104469	    0.077375	   -0.027094	   -0.082001	    0.020955	   -0.061046	    0.028478	    0.007382	    0.035860	   -0.006900	   -0.012138	   -0.019038	    0.000469	    0.000384	    0.000853	   -0.107812	   -0.029377	   -0.137188	   -0.059093	    0.024903	   -0.034190	   -0.105195	    0.013792	   -0.091403	   -0.099285	   -0.030290	   -0.129575	    0.000416	   -0.027786	   -0.027370	    0.002703	    0.000664	    0.003367	    0.002922	    0.012313	    0.015235	   -0.001765	   -0.009396	   -0.011162	    0.007849	    0.081297	    0.089145	    0.080374	    0.149457	    0.229831	   -0.044612	    0.027678	   -0.016934	   -0.040865	   -0.014586	   -0.055451	   -0.001876	   -0.005278	   -0.007154
     5.325	0	0	    0	    0.040985	    0.038846	    0.079831	   -0.055248	    0.023123	   -0.032125	   -0.006256	    0.115353	    0.109096	    0.074288	    0.191096	    0.265384	   -0.102313	    0.078515	   -0.023798	   -0.076663	    0.021528	   -0.055134	    0.032913	    0.011909	    0.044821	   -0.001933	   -0.010215	   -0.012149	    0.006944	   -0.001733	    0.005210	   -0.095089	   -0.031372	   -0.126461	   -0.051060	    0.024377	   -0.026683	   -0.098883	    0.015199	   -0.083683	   -0.088450	   -0.034068	   -0.122517	    0.013152	   -0.029104	   -0.015952	    0.006560	    0.000284	    0.006845	    0.007361	    0.011398	    0.018759	    0.007211	   -0.013693	   -0.006482	    0.027393	    0.080651	    0.108044	    0.102401	    0.147430	    0.249831	   -0.031978	    0.021751	   -0.010227	   -0.031148	   -0.019556	   -0.050704	    0.003373	   -0.004355	   -0.000982
     5.400	0	0	    0	    0.043752	    0.043123	    0.086875	   -0.050842	    0.025281	   -0.025561	   -0.003568	    0.118541	    0.114973	    0.077117	    0.193301	    0.270419	   -0.104715	    0.078296	   -0.026418	   -0.077914	    0.025793	   -0.052121	    0.042988	    0.011417	    0.054404	   -0.000857	   -0.009048	   -0.009905	    0.010998	    0.001640	    0.012639	   -0.093442	   -0.027657	   -0.121099	   -0.051652	    0.025164	   -0.026487	   -0.100089	    0.012988	   -0.087101	   -0.082288	   -0.028074	   -0.110362	    0.016278	   -0.026776	   -0.010498	    0.006272	    0.002561	    0.008833	    0.010239	    0.013594	    0.023833	    0.013863	   -0.009614	    0.004249	    0.037172	    0.088999	    0.126171	    0.118255	    0.156670	    0.274925	   -0.014834	    0.030893	    0.016059	   -0.026323	   -0.014796	   -0.041120	    0.002754	   -0.001788	    0.000965
     5.475	0	0	    0	    0.046055	    0.043969	    0.090024	   -0.048964	    0.025920	   -0.023044	   -0.000394	    0.119744	    0.119350	    0.078144	    0.194993	    0.273137	   -0.104757	    0.078960	   -0.025797	   -0.078202	    0.025388	   -0.052814	    0.044946	    0.015389	    0.060335	   -0.001186	   -0.007784	   -0.008970	    0.013949	    0.001294	    0.015243	   -0.090356	   -0.030317	   -0.120673	   -0.046961	    0.023177	   -0.023785	   -0.101129	    0.013786	   -0.087342	   -0.079410	   -0.030317	   -0.109727	    0.018581	   -0.027526	   -0.008946	    0.006464	    0.004264	    0.010728	    0.011366	    0.014496	    0.025862	    0.019384	   -0.013014	    0.006370	    0.039894	    0.091755	    0.131649	    0.119843	    0.162416	    0.282259	   -0.007579	    0.032781	    0.025202	   -0.024711	   -0.017108	   -0.041819	    0.004525	    0.000249	    0.004775
     5.550	0	0	    0	    0.046991	    0.044292	    0.091284	   -0.048695	    0.025256	   -0.023439	   -0.000269	    0.119316	    0.119047	    0.078085	    0.195360	    0.273445	   -0.103915	    0.078166	   -0.025749	   -0.079305	    0.026159	   -0.053146	    0.044308	    0.013431	    0.057738	    0.000309	   -0.008336	   -0.008028	    0.014312	    0.002205	    0.016517	   -0.091294	   -0.032563	   -0.123858	   -0.048530	    0.023097	   -0.025433	   -0.099786	    0.011909	   -0.087878	   -0.079591	   -0.028829	   -0.108419	    0.019706	   -0.028277	   -0.008571	    0.008055	    0.002733	    0.010788	    0.011604	    0.015608	    0.027212	    0.015385	   -0.009975	    0.005410	    0.038554	    0.091725	    0.130279	    0.118844	    0.163008	    0.281852	   -0.009359	    0.034902	    0.025543	   -0.025293	   -0.017929	   -0.043222	    0.005278	    0.000307	    0.005584
     5.625	0	0	    0	    0.045953	    0.045548	    0.091501	   -0.047538	    0.024630	   -0.022908	    0.000872	    0.120446	    0.121318	    0.079164	    0.195977	    0.275141	   -0.103490	    0.078408	   -0.025083	   -0.077135	    0.026745	   -0.050390	    0.043127	    0.019257	    0.062384	    0.000241	   -0.006734	   -0.006493	    0.015690	    0.001411	    0.017101	   -0.088927	   -0.032907	   -0.121834	   -0.047120	    0.022830	   -0.024290	   -0.099427	    0.011594	   -0.087833	   -0.076847	   -0.028763	   -0.105610	    0.019875	   -0.028795	   -0.008921	    0.009181	    0.002477	    0.011659	    0.012238	    0.015617	    0.027856	    0.017741	   -0.011773	    0.005968	    0.039026	    0.091445	    0.130471	    0.119206	    0.162533	    0.281739	   -0.006948	    0.031496	    0.024548	   -0.024875	   -0.018373	   -0.043247	    0.007115	   -0.001108	    0.006007
     5.700	0	0	    0	    0.045299	    0.044055	    0.089355	   -0.047564	    0.024288	   -0.023276	    0.000313	    0.120346	    0.120659	    0.077607	    0.196037	    0.273645	   -0.103183	    0.078394	   -0.024790	   -0.076652	    0.026750	   -0.049902	    0.039867	    0.019575	    0.059442	   -0.001642	   -0.006849	   -0.008491	    0.015002	    0.002577	    0.017580	   -0.089465	   -0.032197	   -0.121661	   -0.047422	    0.023549	   -0.023873	   -0.100376	    0.012138	   -0.088238	   -0.076961	   -0.028492	   -0.105453	    0.018146	   -0.026730	   -0.008584	    0.010295	    0.000546	    0.010840	    0.011481	    0.016469	    0.027950	    0.016204	   -0.010039	    0.006165	    0.037563	    0.089415	    0.126978	    0.116921	    0.160719	    0.277640	   -0.010041	    0.033229	    0.023188	   -0.025754	   -0.017933	   -0.043687	    0.006906	   -0.001810	    0.005096
     5.775	0	0	    0	    0.041532	    0.044379	    0.085911	   -0.049754	    0.023903	   -0.025851	   -0.000696	    0.120399	    0.119703	    0.077135	    0.195466	    0.272601	   -0.103300	    0.078711	   -0.024590	   -0.077055	    0.026639	   -0.050416	    0.035342	    0.019432	    0.054774	   -0.002596	   -0.007329	   -0.009925	    0.013367	    0.001367	    0.014734	   -0.093040	   -0.031960	   -0.125001	   -0.049891	    0.024383	   -0.025508	   -0.102190	    0.012146	   -0.090043	   -0.079580	   -0.028466	   -0.108046	    0.011371	   -0.022519	   -0.011148	    0.003793	    0.006625	    0.010419	    0.010427	    0.016214	    0.026641	    0.014361	   -0.011936	    0.002424	    0.031116	    0.089566	    0.120682	    0.109054	    0.161294	    0.270348	   -0.013125	    0.029485	    0.016360	   -0.028843	   -0.018254	   -0.047097	    0.005334	    0.001487	    0.006822
     5.850	0	0	    0	    0.040489	    0.043294	    0.083783	   -0.050718	    0.022165	   -0.028553	   -0.000549	    0.118863	    0.118314	    0.073832	    0.196874	    0.270706	   -0.103137	    0.078097	   -0.025040	   -0.076678	    0.025937	   -0.050741	    0.042393	    0.008792	    0.051185	   -0.003320	   -0.007299	   -0.010619	    0.011749	    0.000753	    0.012503	   -0.092782	   -0.033647	   -0.126429	   -0.052940	    0.025508	   -0.027432	   -0.105031	    0.012250	   -0.092781	   -0.081600	   -0.029500	   -0.111100	    0.014434	   -0.030673	   -0.016239	    0.005920	    0.003198	    0.009117	    0.009595	    0.016049	    0.025644	    0.011802	   -0.012657	   -0.000855	    0.026356	    0.087728	    0.114084	    0.105040	    0.157360	    0.262400	   -0.017672	    0.027346	    0.009674	   -0.030701	   -0.021425	   -0.052126	    0.001933	    0.001550	    0.003483
     5.925	0	0	    0	    0.038706	    0.042527	    0.081233	   -0.052972	    0.022346	   -0.030626	   -0.001304	    0.118562	    0.117258	    0.074282	    0.196161	    0.270443	   -0.103942	    0.078538	   -0.025404	   -0.076616	    0.025090	   -0.051526	    0.041393	    0.011235	    0.052628	   -0.005856	   -0.006613	   -0.012469	    0.010464	    0.000324	    0.010788	   -0.095659	   -0.034905	   -0.130563	   -0.055519	    0.024595	   -0.030924	   -0.106895	    0.010209	   -0.096686	   -0.084774	   -0.030244	   -0.115018	    0.010374	   -0.027562	   -0.017188	    0.005052	    0.004336	    0.009388	    0.008517	    0.015897	    0.024414	    0.009280	   -0.013698	   -0.004418	    0.022249	    0.086000	    0.108249	    0.099316	    0.156839	    0.256155	   -0.023875	    0.027529	    0.003654	   -0.033780	   -0.021097	   -0.054877	    0.001258	    0.003757	    0.005015
     6.000	0	0	    0	    0.035661	    0.041848	    0.077510	   -0.055239	    0.021422	   -0.033817	   -0.003818	    0.118945	    0.115127	    0.073113	    0.195031	    0.268144	   -0.103986	    0.078322	   -0.025664	   -0.078522	    0.025341	   -0.053181	    0.034484	    0.012905	    0.047389	   -0.006636	   -0.007519	   -0.014155	    0.006624	    0.001320	    0.007945	   -0.099457	   -0.034889	   -0.134346	   -0.058041	    0.024345	   -0.033697	   -0.108640	    0.010800	   -0.097840	   -0.088216	   -0.030973	   -0.119189	    0.007502	   -0.029787	   -0.022285	    0.004607	    0.004021	    0.008627	    0.007038	    0.015816	    0.022854	    0.004591	   -0.013000	   -0.008409	    0.015738	    0.085595	    0.101333	    0.092284	    0.156526	    0.248810	   -0.029783	    0.026665	   -0.003118	   -0.038675	   -0.019991	   -0.058666	    0.002100	    0.001001	    0.003101
     6.075	0	0	    0	    0.033298	    0.040687	    0.073985	   -0.057807	    0.021183	   -0.036624	   -0.005760	    0.118677	    0.112916	    0.070564	    0.195154	    0.265717	   -0.105068	    0.077728	   -0.027340	   -0.079305	    0.024195	   -0.055110	    0.030716	    0.012851	    0.043567	   -0.008192	   -0.008792	   -0.016984	    0.004754	    0.000560	    0.005314	   -0.103500	   -0.033749	   -0.137250	   -0.060751	    0.024163	   -0.036589	   -0.112219	    0.009787	   -0.102432	   -0.091941	   -0.031841	   -0.123782	    0.002093	   -0.027836	   -0.025743	    0.003534	    0.003565	    0.007099	    0.005925	    0.015358	    0.021283	    0.000773	   -0.013722	   -0.012949	    0.010574	    0.084031	    0.094605	    0.086770	    0.154340	    0.241110	   -0.034706	    0.023576	   -0.011130	   -0.041848	   -0.021391	   -0.063239	    0.000784	    0.001059	    0.001843
     6.150	0	0	    0	    0.037771	    0.039746	    0.077517	   -0.059889	    0.020707	   -0.039182	   -0.007396	    0.118037	    0.110641	    0.071807	    0.193653	    0.265460	   -0.104844	    0.077716	   -0.027128	   -0.078942	    0.022538	   -0.056404	    0.036667	    0.005702	    0.042369	   -0.003690	   -0.009222	   -0.012912	    0.003117	    0.000455	    0.003572	   -0.104074	   -0.037294	   -0.141368	   -0.063272	    0.023422	   -0.039850	   -0.109185	    0.009167	   -0.100018	   -0.095220	   -0.032397	   -0.127617	    0.005693	   -0.032103	   -0.026410	    0.004024	    0.004057	    0.008081	    0.005580	    0.015650	    0.021230	   -0.002377	   -0.015360	   -0.017737	    0.010121	    0.081068	    0.091189	    0.086484	    0.151258	    0.237742	   -0.040764	    0.024468	   -0.016296	   -0.044955	   -0.021695	   -0.066651	    0.002109	    0.000750	    0.002858
     6.225	0	0	    0	    0.042538	    0.040933	    0.083470	   -0.048372	    0.019520	   -0.028851	   -0.001283	    0.117620	    0.116338	    0.075300	    0.195162	    0.270462	   -0.102221	    0.078706	   -0.023515	   -0.073295	    0.024029	   -0.049266	    0.042112	    0.014930	    0.057042	   -0.000600	   -0.006430	   -0.007030	    0.011436	    0.000148	    0.011585	   -0.088728	   -0.036821	   -0.125549	   -0.052160	    0.023212	   -0.028948	   -0.101019	    0.010474	   -0.090545	   -0.079413	   -0.034629	   -0.114042	    0.017012	   -0.026448	   -0.009437	    0.010064	    0.003208	    0.013272	    0.011566	    0.015311	    0.026877	    0.011147	   -0.014918	   -0.003771	    0.032035	    0.084500	    0.116535	    0.109492	    0.154293	    0.263784	   -0.020044	    0.021309	    0.001265	   -0.031082	   -0.023615	   -0.054696	    0.007626	    0.001025	    0.008651
     6.300	0	0	    0	    0.044369	    0.041423	    0.085793	   -0.044348	    0.022117	   -0.022231	    0.001801	    0.120272	    0.122073	    0.076349	    0.195655	    0.272004	   -0.099632	    0.078848	   -0.020783	   -0.071421	    0.026625	   -0.044796	    0.043973	    0.015986	    0.059960	    0.001382	   -0.007014	   -0.005632	    0.013934	    0.003283	    0.017217	   -0.083572	   -0.031477	   -0.115049	   -0.047406	    0.026517	   -0.020888	   -0.097983	    0.011293	   -0.086690	   -0.072317	   -0.028059	   -0.100376	    0.019736	   -0.025958	   -0.006222	    0.009387	    0.005874	    0.015261	    0.013480	    0.017330	    0.030809	    0.016064	   -0.008538	    0.007527	    0.037633	    0.087969	    0.125602	    0.115265	    0.158422	    0.273687	   -0.007405	    0.028282	    0.020877	   -0.025397	   -0.018507	   -0.043904	    0.009392	    0.002252	    0.011644
     6.375	0	0	    0	    0.045195	    0.041129	    0.086324	   -0.042336	    0.022655	   -0.019681	    0.005072	    0.119405	    0.124477	    0.078640	    0.194441	    0.273081	   -0.098901	    0.079330	   -0.019571	   -0.070654	    0.027603	   -0.043051	    0.043576	    0.019286	    0.062861	    0.002180	   -0.007667	   -0.005487	    0.015176	    0.003582	    0.018758	   -0.080118	   -0.031675	   -0.111793	   -0.045424	    0.026622	   -0.018802	   -0.096346	    0.011616	   -0.084730	   -0.069576	   -0.026812	   -0.096388	    0.018939	   -0.023455	   -0.004516	    0.009481	    0.007038	    0.016519	    0.014726	    0.018260	    0.032985	    0.018548	   -0.009060	    0.009488	    0.039477	    0.089872	    0.129348	    0.117313	    0.160566	    0.277879	   -0.004785	    0.032005	    0.027221	   -0.024303	   -0.017524	   -0.041827	    0.009573	    0.002305	    0.011878
     6.450	0	0	    0	    0.045476	    0.039961	    0.085437	   -0.041876	    0.021768	   -0.020107	    0.004568	    0.119795	    0.124363	    0.078956	    0.193093	    0.272049	   -0.097149	    0.079111	   -0.018038	   -0.069385	    0.027033	   -0.042352	    0.043467	    0.017860	    0.061327	    0.000980	   -0.006998	   -0.006018	    0.015075	    0.003013	    0.018089	   -0.079319	   -0.032016	   -0.111335	   -0.045962	    0.027562	   -0.018401	   -0.095606	    0.012424	   -0.083181	   -0.069346	   -0.027077	   -0.096424	    0.017867	   -0.025533	   -0.007665	    0.010961	    0.005041	    0.016003	    0.014523	    0.019145	    0.033668	    0.017910	   -0.009579	    0.008331	    0.039348	    0.087963	    0.127311	    0.116028	    0.158255	    0.274283	   -0.004893	    0.028743	    0.023850	   -0.025458	   -0.018086	   -0.043544	    0.010317	    0.001447	    0.011764
     6.525	0	0	    0	    0.043185	    0.042406	    0.085591	   -0.041140	    0.021746	   -0.019394	    0.005606	    0.118851	    0.124457	    0.078755	    0.192764	    0.271519	   -0.095198	    0.079928	   -0.015270	   -0.067345	    0.026219	   -0.041126	    0.045043	    0.014380	    0.059423	   -0.000341	   -0.005238	   -0.005579	    0.016455	    0.001309	    0.017764	   -0.076995	   -0.032429	   -0.109424	   -0.042440	    0.028206	   -0.014234	   -0.093456	    0.014633	   -0.078823	   -0.067430	   -0.027771	   -0.095201	    0.019578	   -0.026357	   -0.006780	    0.009894	    0.006371	    0.016265	    0.015479	    0.019101	    0.034580	    0.018753	   -0.011345	    0.007408	    0.038119	    0.087638	    0.125757	    0.112757	    0.158164	    0.270921	   -0.003535	    0.027793	    0.024258	   -0.025207	   -0.018271	   -0.043478	    0.009030	    0.003139	    0.012169
     6.600	0	0	    0	    0.041735	    0.041372	    0.083107	   -0.041784	    0.020789	   -0.020995	    0.006463	    0.116846	    0.123309	    0.076474	    0.192885	    0.269359	   -0.093298	    0.080412	   -0.012886	   -0.066174	    0.026554	   -0.039621	    0.043789	    0.014052	    0.057841	   -0.001814	   -0.005923	   -0.007737	    0.014215	    0.001802	    0.016017	   -0.077893	   -0.032206	   -0.110099	   -0.043288	    0.029160	   -0.014128	   -0.092687	    0.015177	   -0.077511	   -0.069110	   -0.027132	   -0.096241	    0.019203	   -0.032079	   -0.012877	    0.009402	    0.006970	    0.016371	    0.015504	    0.019519	    0.035023	    0.016155	   -0.012596	    0.003559	    0.036351	    0.086255	    0.122606	    0.109152	    0.155952	    0.265104	   -0.007128	    0.028645	    0.021517	   -0.027793	   -0.018975	   -0.046768	    0.006375	    0.003672	    0.010047
     6.675	0	0	    0	    0.040771	    0.040485	    0.081255	   -0.043308	    0.020381	   -0.022926	    0.005362	    0.117125	    0.122487	    0.076570	    0.191389	    0.267958	   -0.092477	    0.080351	   -0.012126	   -0.066285	    0.025701	   -0.040584	    0.041724	    0.013021	    0.054744	   -0.002180	   -0.007238	   -0.009418	    0.012563	    0.000257	    0.012820	   -0.079968	   -0.031999	   -0.111967	   -0.044775	    0.029718	   -0.015058	   -0.093159	    0.015495	   -0.077664	   -0.070779	   -0.028219	   -0.098998	    0.013230	   -0.026966	   -0.013736	    0.008115	    0.006686	    0.014801	    0.014844	    0.020097	    0.034941	    0.013897	   -0.015355	   -0.001458	    0.031807	    0.084867	    0.116674	    0.103745	    0.152967	    0.256712	   -0.012141	    0.027792	    0.015651	   -0.029740	   -0.020195	   -0.049935	    0.008614	    0.002705	    0.011319
     6.750	0	0	    0	    0.039231	    0.040157	    0.079387	   -0.045781	    0.019933	   -0.025848	    0.002632	    0.116435	    0.119067	    0.074795	    0.189885	    0.264680	   -0.091347	    0.079831	   -0.011516	   -0.067117	    0.025085	   -0.042032	    0.034492	    0.014131	    0.048623	   -0.003223	   -0.006540	   -0.009762	    0.010251	   -0.000436	    0.009815	   -0.081068	   -0.032713	   -0.113780	   -0.046301	    0.030394	   -0.015906	   -0.093153	    0.016294	   -0.076859	   -0.073802	   -0.028696	   -0.102498	    0.008453	   -0.028630	   -0.020178	    0.006348	    0.006596	    0.012944	    0.014708	    0.019842	    0.034550	    0.008530	   -0.015345	   -0.006816	    0.024935	    0.083345	    0.108280	    0.095631	    0.150429	    0.246059	   -0.016701	    0.023486	    0.006785	   -0.033996	   -0.020585	   -0.054582	    0.004815	    0.002667	    0.007482
     6.825	0	0	    0	    0.037386	    0.039163	    0.076549	   -0.047922	    0.019598	   -0.028324	    0.000796	    0.115223	    0.116019	    0.075038	    0.187068	    0.262106	   -0.090326	    0.079346	   -0.010980	   -0.068195	    0.024414	   -0.043781	    0.032130	    0.014393	    0.046523	   -0.003884	   -0.007829	   -0.011713	    0.008376	   -0.001103	    0.007274	   -0.083623	   -0.031500	   -0.115123	   -0.048665	    0.031008	   -0.017657	   -0.093368	    0.015264	   -0.078104	   -0.077603	   -0.029134	   -0.106737	    0.005982	   -0.028278	   -0.022296	    0.006389	    0.005683	    0.012072	    0.013590	    0.020384	    0.033974	    0.006751	   -0.016439	   -0.009688	    0.021535	    0.080659	    0.102194	    0.090674	    0.147312	    0.237986	   -0.022640	    0.022884	    0.000243	   -0.038322	   -0.020427	   -0.058748	    0.004505	    0.004310	    0.008814
     6.900	0	0	    0	    0.033735	    0.039846	    0.073580	   -0.049307	    0.018583	   -0.030724	    0.000595	    0.113292	    0.113887	    0.072720	    0.187142	    0.259862	   -0.091436	    0.080259	   -0.011177	   -0.068813	    0.023636	   -0.045177	    0.030089	    0.012423	    0.042512	   -0.006354	   -0.007261	   -0.013615	    0.006533	   -0.001872	    0.004661	   -0.085436	   -0.031906	   -0.117341	   -0.050691	    0.030763	   -0.019928	   -0.096294	    0.016228	   -0.080066	   -0.079185	   -0.031471	   -0.110655	    0.006257	   -0.029909	   -0.023652	    0.005650	    0.005185	    0.010835	    0.012361	    0.020215	    0.032576	    0.004669	   -0.018910	   -0.014241	    0.015514	    0.079608	    0.095122	    0.085657	    0.145250	    0.230907	   -0.025772	    0.020173	   -0.005600	   -0.040149	   -0.022920	   -0.063069	    0.003912	    0.003516	    0.007428
     6.975	0	0	    0	    0.033773	    0.038014	    0.071788	   -0.051621	    0.018280	   -0.033341	   -0.001638	    0.113459	    0.111821	    0.071117	    0.186258	    0.257375	   -0.091401	    0.080075	   -0.011326	   -0.071034	    0.023242	   -0.047792	    0.030623	    0.009124	    0.039747	   -0.007781	   -0.008087	   -0.015868	    0.003754	   -0.001353	    0.002401	   -0.088924	   -0.031883	   -0.120808	   -0.053983	    0.031011	   -0.022972	   -0.097285	    0.015152	   -0.082134	   -0.083490	   -0.030416	   -0.113906	    0.002504	   -0.030551	   -0.028047	    0.002889	    0.006988	    0.009876	    0.011742	    0.019849	    0.031591	    0.000800	   -0.019425	   -0.018624	    0.009975	    0.078807	    0.088782	    0.080099	    0.144094	    0.224194	   -0.032265	    0.020898	   -0.011367	   -0.044566	   -0.022351	   -0.066917	    0.002235	    0.004506	    0.006742
     7.050	0	0	    0	    0.034361	    0.037826	    0.072187	   -0.054284	    0.018428	   -0.035856	   -0.002617	    0.112211	    0.109594	    0.072458	    0.183432	    0.255890	   -0.089729	    0.079397	   -0.010332	   -0.070939	    0.021884	   -0.049055	    0.029682	    0.008495	    0.038177	   -0.005784	   -0.007942	   -0.013726	    0.000565	   -0.001362	   -0.000798	   -0.090489	   -0.033098	   -0.123587	   -0.054241	    0.030327	   -0.023914	   -0.093987	    0.014352	   -0.079635	   -0.087134	   -0.031398	   -0.118532	    0.002702	   -0.031690	   -0.028989	    0.005837	    0.005210	    0.011047	    0.009764	    0.019434	    0.029198	   -0.004971	   -0.019796	   -0.024767	    0.007765	    0.076125	    0.083889	    0.075928	    0.140629	    0.216557	   -0.038700	    0.020064	   -0.018636	   -0.049467	   -0.021688	   -0.071154	    0.002774	    0.004234	    0.007008
     7.125	0	0	    0	    0.038692	    0.038522	    0.077214	   -0.043936	    0.017559	   -0.026378	    0.002950	    0.111877	    0.114827	    0.076456	    0.184130	    0.260586	   -0.085245	    0.079123	   -0.006122	   -0.065201	    0.023183	   -0.042019	    0.035416	    0.013900	    0.049316	   -0.001390	   -0.007035	   -0.008425	    0.008209	   -0.003159	    0.005051	   -0.076808	   -0.032080	   -0.108888	   -0.043878	    0.029671	   -0.014207	   -0.085350	    0.015660	   -0.069690	   -0.073612	   -0.034636	   -0.108248	    0.012359	   -0.028479	   -0.016120	    0.007983	    0.006439	    0.014422	    0.014173	    0.018771	    0.032944	    0.007563	   -0.021831	   -0.014268	    0.029028	    0.078020	    0.107048	    0.100389	    0.142245	    0.242634	   -0.020330	    0.016108	   -0.004222	   -0.037542	   -0.024633	   -0.062175	    0.007138	    0.003604	    0.010742
     7.200	0	0	    0	    0.040844	    0.038004	    0.078848	   -0.038970	    0.020096	   -0.018874	    0.006938	    0.114189	    0.121127	    0.078259	    0.183996	    0.262255	   -0.083864	    0.080896	   -0.002967	   -0.061565	    0.024621	   -0.036944	    0.035569	    0.018234	    0.053803	    0.000036	   -0.007455	   -0.007419	    0.011405	   -0.000137	    0.011269	   -0.070157	   -0.027429	   -0.097586	   -0.037813	    0.031847	   -0.005967	   -0.082537	    0.016586	   -0.065951	   -0.065620	   -0.029244	   -0.094865	    0.013233	   -0.025121	   -0.011888	    0.011524	    0.005515	    0.017039	    0.015733	    0.020753	    0.036486	    0.013179	   -0.016103	   -0.002924	    0.035445	    0.081435	    0.116880	    0.106298	    0.146521	    0.252819	   -0.007161	    0.023180	    0.016018	   -0.029791	   -0.020480	   -0.050271	    0.010561	    0.002692	    0.013253
     7.275	0	0	    0	    0.039917	    0.038552	    0.078470	   -0.036025	    0.020161	   -0.015863	    0.009602	    0.114298	    0.123900	    0.077943	    0.183897	    0.261840	   -0.082040	    0.081380	   -0.000660	   -0.059905	    0.025876	   -0.034029	    0.041338	    0.014689	    0.056027	   -0.001196	   -0.006834	   -0.008030	    0.013299	   -0.000463	    0.012836	   -0.065257	   -0.027330	   -0.092587	   -0.035692	    0.033744	   -0.001947	   -0.080745	    0.017609	   -0.063136	   -0.063418	   -0.026960	   -0.090378	    0.013966	   -0.024319	   -0.010352	    0.009529	    0.007420	    0.016949	    0.017196	    0.020867	    0.038063	    0.016407	   -0.015828	    0.000579	    0.036818	    0.082521	    0.119339	    0.108208	    0.147268	    0.255475	   -0.002999	    0.024254	    0.021255	   -0.028684	   -0.018903	   -0.047587	    0.010770	    0.002972	    0.013742
     7.350	0	0	    0	    0.040347	    0.036877	    0.077224	   -0.036345	    0.020050	   -0.016295	    0.011088	    0.112929	    0.124017	    0.079304	    0.181605	    0.260909	   -0.079860	    0.079987	    0.000128	   -0.058578	    0.024693	   -0.033885	    0.047860	    0.006252	    0.054112	   -0.000378	   -0.008228	   -0.008605	    0.011588	    0.000521	    0.012108	   -0.064609	   -0.026720	   -0.091329	   -0.036226	    0.033659	   -0.002567	   -0.079597	    0.017111	   -0.062487	   -0.063757	   -0.027144	   -0.090901	    0.018182	   -0.029992	   -0.011811	    0.009867	    0.006281	    0.016148	    0.016998	    0.021455	    0.038453	    0.014463	   -0.014146	    0.000316	    0.035543	    0.081224	    0.116767	    0.107317	    0.144819	    0.252136	   -0.006294	    0.026263	    0.019968	   -0.030737	   -0.018643	   -0.049380	    0.009900	    0.004980	    0.014880
     7.425	0	0	    0	    0.038092	    0.037535	    0.075627	   -0.035202	    0.019916	   -0.015286	    0.011867	    0.112811	    0.124678	    0.077226	    0.183085	    0.260311	   -0.079131	    0.080686	    0.001555	   -0.057906	    0.024976	   -0.032930	    0.038636	    0.016799	    0.055435	   -0.002128	   -0.006589	   -0.008717	    0.012727	   -0.001066	    0.011660	   -0.063865	   -0.025522	   -0.089388	   -0.034227	    0.033633	   -0.000594	   -0.079145	    0.017344	   -0.061801	   -0.063094	   -0.026985	   -0.090079	    0.012843	   -0.024045	   -0.011202	    0.013600	    0.003677	    0.017277	    0.017659	    0.021097	    0.038757	    0.015889	   -0.015572	    0.000317	    0.037121	    0.078283	    0.115404	    0.107018	    0.143943	    0.250961	   -0.002844	    0.022207	    0.019363	   -0.030801	   -0.019166	   -0.049967	    0.013022	    0.001126	    0.014148
     7.500	0	0	    0	    0.035927	    0.037297	    0.073224	   -0.035618	    0.019838	   -0.015780	    0.012624	    0.111948	    0.124572	    0.076209	    0.181101	    0.257310	   -0.078833	    0.079840	    0.001007	   -0.059626	    0.026169	   -0.033458	    0.038279	    0.014535	    0.052814	   -0.002867	   -0.007165	   -0.010032	    0.011235	   -0.000410	    0.010825	   -0.062743	   -0.025924	   -0.088668	   -0.035484	    0.034268	   -0.001217	   -0.080726	    0.017054	   -0.063672	   -0.063155	   -0.027724	   -0.090878	    0.013446	   -0.027991	   -0.014545	    0.010888	    0.006874	    0.017762	    0.017531	    0.021196	    0.038727	    0.014184	   -0.015442	   -0.001257	    0.031634	    0.078601	    0.110234	    0.100867	    0.143458	    0.244325	   -0.005765	    0.022949	    0.017184	   -0.031526	   -0.020680	   -0.052206	    0.010783	    0.003585	    0.014368
     7.575	0	0	    0	    0.034724	    0.035583	    0.070307	   -0.037698	    0.019716	   -0.017982	    0.011398	    0.110905	    0.122304	    0.074461	    0.179421	    0.253882	   -0.077997	    0.079360	    0.001363	   -0.058983	    0.024419	   -0.034564	    0.034442	    0.014837	    0.049279	   -0.003747	   -0.007560	   -0.011308	    0.009651	   -0.001389	    0.008261	   -0.063563	   -0.026356	   -0.089919	   -0.037106	    0.033570	   -0.003536	   -0.080791	    0.015854	   -0.064937	   -0.066956	   -0.027524	   -0.094480	    0.010323	   -0.029660	   -0.019338	    0.009357	    0.006186	    0.015543	    0.016353	    0.021559	    0.037912	    0.010085	   -0.016428	   -0.006344	    0.026012	    0.076403	    0.102416	    0.094718	    0.140342	    0.235060	   -0.012037	    0.022096	    0.010059	   -0.035660	   -0.020507	   -0.056167	    0.008119	    0.003995	    0.012113
     7.650	0	0	    0	    0.033641	    0.034787	    0.068429	   -0.039693	    0.018993	   -0.020700	    0.008879	    0.110564	    0.119442	    0.071510	    0.178942	    0.250452	   -0.078303	    0.078809	    0.000507	   -0.060369	    0.024404	   -0.035965	    0.032468	    0.010668	    0.043137	   -0.004323	   -0.007360	   -0.011683	    0.007562	   -0.001711	    0.005851	   -0.065933	   -0.025663	   -0.091597	   -0.040144	    0.033682	   -0.006461	   -0.083100	    0.015949	   -0.067152	   -0.070004	   -0.029292	   -0.099295	    0.007276	   -0.027881	   -0.020605	    0.005486	    0.008440	    0.013927	    0.015478	    0.021353	    0.036831	    0.005841	   -0.016811	   -0.010970	    0.020268	    0.073891	    0.094159	    0.088077	    0.137983	    0.226060	   -0.017322	    0.019611	    0.002289	   -0.039799	   -0.020092	   -0.059891	    0.005351	    0.006591	    0.011943
     7.725	0	0	    0	    0.031707	    0.034089	    0.065797	   -0.042586	    0.019179	   -0.023407	    0.008084	    0.108654	    0.116738	    0.071284	    0.176158	    0.247441	   -0.078649	    0.078313	   -0.000336	   -0.060014	    0.022073	   -0.037941	    0.031431	    0.009871	    0.041302	   -0.004854	   -0.006949	   -0.011804	    0.005286	   -0.001323	    0.003963	   -0.068350	   -0.025229	   -0.093580	   -0.041741	    0.033208	   -0.008533	   -0.085003	    0.015749	   -0.069254	   -0.074135	   -0.029931	   -0.104066	    0.003933	   -0.028847	   -0.024914	    0.004988	    0.008140	    0.013128	    0.014471	    0.021344	    0.035815	    0.001975	   -0.017898	   -0.015924	    0.014595	    0.071266	    0.085861	    0.081687	    0.134948	    0.216635	   -0.024092	    0.020090	   -0.004002	   -0.042275	   -0.021939	   -0.064214	    0.006753	    0.003269	    0.010023
     7.800	0	0	    0	    0.028898	    0.034841	    0.063738	   -0.044022	    0.017755	   -0.026268	    0.006112	    0.107619	    0.113732	    0.067893	    0.176425	    0.244318	   -0.079922	    0.078272	   -0.001650	   -0.061355	    0.021540	   -0.039815	    0.027979	    0.010305	    0.038284	   -0.006617	   -0.006348	   -0.012965	    0.003048	   -0.001500	    0.001548	   -0.071245	   -0.026407	   -0.097652	   -0.044685	    0.032710	   -0.011975	   -0.087786	    0.015761	   -0.072026	   -0.078562	   -0.030908	   -0.109469	    0.001171	   -0.028997	   -0.027826	    0.006218	    0.006349	    0.012567	    0.013438	    0.021428	    0.034865	   -0.002711	   -0.018375	   -0.021086	    0.008340	    0.070679	    0.079019	    0.075822	    0.133294	    0.209116	   -0.029087	    0.018017	   -0.011070	   -0.045874	   -0.022228	   -0.068102	    0.005085	    0.004622	    0.009707
     7.875	0	0	    0	    0.027727	    0.033639	    0.061366	   -0.046679	    0.017956	   -0.028723	    0.002772	    0.108265	    0.111037	    0.065645	    0.176308	    0.241953	   -0.081117	    0.077817	   -0.003300	   -0.064231	    0.022300	   -0.041932	    0.024483	    0.013765	    0.038248	   -0.008432	   -0.006082	   -0.014515	    0.000999	   -0.001801	   -0.000801	   -0.075092	   -0.025403	   -0.100495	   -0.048532	    0.032672	   -0.015860	   -0.090478	    0.015070	   -0.075408	   -0.081695	   -0.032905	   -0.114600	   -0.000767	   -0.030044	   -0.030811	    0.003286	    0.006928	    0.010214	    0.012717	    0.020589	    0.033306	   -0.005176	   -0.020659	   -0.025834	    0.003873	    0.067714	    0.071587	    0.070262	    0.131733	    0.201995	   -0.033187	    0.015558	   -0.017628	   -0.047866	   -0.024933	   -0.072798	    0.004468	    0.003599	    0.008067
     7.950	0	0	    0	    0.024541	    0.033814	    0.058355	   -0.050250	    0.018067	   -0.032183	    0.000482	    0.107555	    0.108037	    0.064168	    0.174753	    0.238921	   -0.081448	    0.076488	   -0.004960	   -0.068172	    0.023013	   -0.045159	    0.018878	    0.015777	    0.034655	   -0.009837	   -0.006879	   -0.016716	   -0.000470	   -0.002988	   -0.003457	   -0.080599	   -0.026135	   -0.106734	   -0.051546	    0.030738	   -0.020809	   -0.092823	    0.013276	   -0.079547	   -0.086957	   -0.032953	   -0.119911	   -0.005260	   -0.029491	   -0.034752	    0.005807	    0.003638	    0.009445	    0.011381	    0.020938	    0.032319	   -0.009341	   -0.021384	   -0.030726	   -0.002286	    0.066843	    0.064557	    0.065317	    0.130761	    0.196078	   -0.038456	    0.015278	   -0.023178	   -0.053849	   -0.023217	   -0.077066	    0.004780	    0.001835	    0.006614
     8.025	0	0	    0	    0.027868	    0.032316	    0.060184	   -0.051992	    0.017449	   -0.034543	   -0.000961	    0.106123	    0.105163	    0.064559	    0.173509	    0.238068	   -0.080687	    0.075883	   -0.004804	   -0.066924	    0.019225	   -0.047699	    0.024235	    0.008535	    0.032770	   -0.006354	   -0.008490	   -0.014843	   -0.003316	   -0.002930	   -0.006246	   -0.081602	   -0.028201	   -0.109803	   -0.052510	    0.029810	   -0.022700	   -0.088465	    0.011434	   -0.077031	   -0.090736	   -0.034339	   -0.125074	   -0.004259	   -0.031965	   -0.036224	    0.005052	    0.004336	    0.009388	    0.010186	    0.021023	    0.031209	   -0.014002	   -0.022149	   -0.036151	   -0.002831	    0.063185	    0.060354	    0.063971	    0.126488	    0.190459	   -0.044358	    0.013590	   -0.030768	   -0.056909	   -0.024365	   -0.081273	    0.005910	    0.001493	    0.007402
     8.100	0	0	    0	    0.031277	    0.033310	    0.064587	   -0.040724	    0.016510	   -0.024214	    0.006577	    0.104967	    0.111543	    0.071258	    0.171688	    0.242946	   -0.076741	    0.075792	   -0.000949	   -0.061609	    0.022020	   -0.039588	    0.032593	    0.014067	    0.046660	   -0.003654	   -0.007719	   -0.011374	    0.003833	   -0.002461	    0.001372	   -0.066691	   -0.027513	   -0.094204	   -0.040150	    0.029242	   -0.010908	   -0.079892	    0.013241	   -0.066651	   -0.075789	   -0.036076	   -0.111865	    0.005244	   -0.027386	   -0.022142	    0.011039	    0.002418	    0.013457	    0.015254	    0.019896	    0.035150	   -0.001119	   -0.023229	   -0.024348	    0.018022	    0.066621	    0.084642	    0.088219	    0.128177	    0.216396	   -0.023532	    0.011087	   -0.012445	   -0.043352	   -0.026496	   -0.069848	    0.009929	    0.001114	    0.011043
     8.175	0	0	    0	    0.031419	    0.033404	    0.064822	   -0.036994	    0.019729	   -0.017265	    0.010783	    0.106387	    0.117170	    0.069306	    0.173609	    0.242915	   -0.075230	    0.076766	    0.001536	   -0.057727	    0.022470	   -0.035257	    0.038093	    0.010244	    0.048337	   -0.003538	   -0.006939	   -0.010477	    0.007713	   -0.001522	    0.006191	   -0.060341	   -0.023362	   -0.083703	   -0.036393	    0.032753	   -0.003640	   -0.078045	    0.015088	   -0.062957	   -0.069362	   -0.030260	   -0.099623	    0.009067	   -0.027959	   -0.018892	    0.008298	    0.006912	    0.015210	    0.016692	    0.021544	    0.038237	    0.004977	   -0.017796	   -0.012819	    0.023592	    0.069703	    0.093295	    0.091404	    0.132850	    0.224255	   -0.013218	    0.019877	    0.006659	   -0.039009	   -0.020253	   -0.059262	    0.010945	    0.002720	    0.013665
     8.250	0	0	    0	    0.032122	    0.032568	    0.064690	   -0.035380	    0.020132	   -0.015247	    0.011235	    0.107006	    0.118241	    0.070381	    0.172519	    0.242901	   -0.074264	    0.076736	    0.002472	   -0.057851	    0.023973	   -0.033878	    0.034044	    0.015262	    0.049306	   -0.004031	   -0.007468	   -0.011499	    0.008098	   -0.000800	    0.007298	   -0.058603	   -0.022281	   -0.080885	   -0.035896	    0.033128	   -0.002768	   -0.078286	    0.015184	   -0.063102	   -0.067433	   -0.029794	   -0.097227	    0.006767	   -0.026612	   -0.019846	    0.007211	    0.007949	    0.015160	    0.016805	    0.021826	    0.038631	    0.006074	   -0.016737	   -0.010664	    0.025163	    0.070618	    0.095781	    0.093192	    0.133914	    0.227106	   -0.009555	    0.020283	    0.010728	   -0.037478	   -0.020973	   -0.058451	    0.007907	    0.003407	    0.011315
     8.325	0	0	    0	    0.030937	    0.034290	    0.065226	   -0.035370	    0.019416	   -0.015955	    0.012360	    0.104932	    0.117292	    0.070365	    0.171855	    0.242220	   -0.073721	    0.076847	    0.003126	   -0.057782	    0.023255	   -0.034527	    0.035121	    0.013334	    0.048455	   -0.003539	   -0.007823	   -0.011362	    0.007010	   -0.000409	    0.006602	   -0.058712	   -0.022963	   -0.081675	   -0.035879	    0.031821	   -0.004057	   -0.077899	    0.014760	   -0.063140	   -0.068924	   -0.030286	   -0.099210	    0.007328	   -0.026676	   -0.019349	    0.009421	    0.005362	    0.014783	    0.016708	    0.021740	    0.038448	    0.006109	   -0.017621	   -0.011512	    0.025103	    0.069322	    0.094424	    0.093775	    0.133211	    0.226986	   -0.011804	    0.020544	    0.008740	   -0.038268	   -0.021475	   -0.059743	    0.006124	    0.007141	    0.013265
     8.400	0	0	    0	    0.032134	    0.032501	    0.064635	   -0.034243	    0.018987	   -0.015256	    0.013176	    0.104732	    0.117908	    0.072559	    0.169493	    0.242052	   -0.072616	    0.076175	    0.003559	   -0.056651	    0.023351	   -0.033300	    0.037725	    0.009173	    0.046898	   -0.004407	   -0.007433	   -0.011840	    0.009096	   -0.002135	    0.006962	   -0.056982	   -0.023375	   -0.080356	   -0.034589	    0.032400	   -0.002189	   -0.077348	    0.013997	   -0.063350	   -0.066862	   -0.030949	   -0.097811	    0.008397	   -0.028476	   -0.020079	    0.007795	    0.006414	    0.014209	    0.017061	    0.021451	    0.038513	    0.007302	   -0.018928	   -0.011626	    0.024717	    0.069972	    0.094689	    0.093977	    0.133369	    0.227346	   -0.010053	    0.019624	    0.009571	   -0.037705	   -0.022802	   -0.060507	    0.007949	    0.004553	    0.012503
     8.475	0	0	    0	    0.029919	    0.033271	    0.063190	   -0.035866	    0.019319	   -0.016547	    0.012593	    0.104289	    0.116882	    0.068926	    0.171889	    0.240815	   -0.073735	    0.076938	    0.003203	   -0.058460	    0.023942	   -0.034518	    0.032784	    0.013245	    0.046029	   -0.005579	   -0.007672	   -0.013251	    0.006328	   -0.000453	    0.005875	   -0.059693	   -0.023178	   -0.082871	   -0.036504	    0.031933	   -0.004571	   -0.079668	    0.013463	   -0.066205	   -0.070008	   -0.028875	   -0.098883	    0.007352	   -0.030176	   -0.022825	    0.006850	    0.007094	    0.013943	    0.016230	    0.021988	    0.038218	    0.001756	   -0.015180	   -0.013424	    0.021291	    0.070165	    0.091456	    0.091405	    0.133258	    0.224663	   -0.015009	    0.022496	    0.007487	   -0.042093	   -0.020038	   -0.062130	    0.006589	    0.004132	    0.010721
     8.550	0	0	    0	    0.029394	    0.033007	    0.062402	   -0.037572	    0.018532	   -0.019040	    0.010347	    0.104417	    0.114764	    0.067659	    0.171842	    0.239501	   -0.074234	    0.076373	    0.002139	   -0.059732	    0.023300	   -0.036432	    0.031808	    0.012954	    0.044763	   -0.006784	   -0.007724	   -0.014508	    0.004804	   -0.000561	    0.004243	   -0.062962	   -0.023757	   -0.086719	   -0.038367	    0.031222	   -0.007145	   -0.083057	    0.014489	   -0.068568	   -0.072387	   -0.030516	   -0.102903	    0.006273	   -0.032034	   -0.025761	    0.006934	    0.004868	    0.011802	    0.015261	    0.021819	    0.037080	    0.002476	   -0.019177	   -0.016701	    0.017448	    0.068652	    0.086100	    0.086942	    0.132841	    0.219783	   -0.017901	    0.020566	    0.002665	   -0.044456	   -0.022096	   -0.066551	    0.007502	    0.003151	    0.010653
     8.625	0	0	    0	    0.028406	    0.032290	    0.060696	   -0.040461	    0.018186	   -0.022275	    0.009796	    0.101659	    0.111455	    0.066277	    0.172020	    0.238297	   -0.075629	    0.076261	    0.000632	   -0.061643	    0.022845	   -0.038798	    0.030909	    0.012033	    0.042942	   -0.007369	   -0.008740	   -0.016109	    0.002820	   -0.000918	    0.001902	   -0.065953	   -0.025564	   -0.091517	   -0.041863	    0.029733	   -0.012130	   -0.084820	    0.011689	   -0.073132	   -0.076608	   -0.031021	   -0.107628	    0.002704	   -0.031233	   -0.028530	    0.006856	    0.004800	    0.011656	    0.014535	    0.021604	    0.036139	   -0.003220	   -0.017337	   -0.020558	    0.013939	    0.067924	    0.081863	    0.083254	    0.133291	    0.216545	   -0.021986	    0.018635	   -0.003351	   -0.047882	   -0.022864	   -0.070746	    0.007455	    0.002137	    0.009592
     8.700	0	0	    0	    0.027299	    0.032219	    0.059518	   -0.042785	    0.017813	   -0.024971	    0.007145	    0.102257	    0.109402	    0.065163	    0.171929	    0.237091	   -0.078376	    0.077035	   -0.001341	   -0.064356	    0.023252	   -0.041104	    0.029317	    0.012532	    0.041849	   -0.009717	   -0.008652	   -0.018369	    0.001665	   -0.001483	    0.000182	   -0.070823	   -0.027074	   -0.097897	   -0.044256	    0.028585	   -0.015671	   -0.090525	    0.012332	   -0.078194	   -0.080557	   -0.031723	   -0.112280	   -0.000914	   -0.030428	   -0.031342	    0.004924	    0.005775	    0.010698	    0.013265	    0.021690	    0.034954	   -0.005492	   -0.019203	   -0.024695	    0.009744	    0.067245	    0.076988	    0.080285	    0.131788	    0.212074	   -0.027914	    0.019062	   -0.008851	   -0.052241	   -0.022611	   -0.074852	    0.007053	    0.001325	    0.008378
     8.775	0	0	    0	    0.026364	    0.034603	    0.060966	   -0.046229	    0.017726	   -0.028503	    0.004623	    0.101840	    0.106463	    0.063027	    0.173881	    0.236907	   -0.087219	    0.078650	   -0.008569	   -0.069545	    0.024086	   -0.045460	    0.027778	    0.014687	    0.042465	   -0.011725	   -0.008845	   -0.020570	    0.000038	   -0.002126	   -0.002087	   -0.077246	   -0.028832	   -0.106078	   -0.049735	    0.027302	   -0.022433	   -0.104615	    0.011179	   -0.093436	   -0.085536	   -0.033267	   -0.118803	   -0.004214	   -0.028411	   -0.032625	    0.004602	    0.004418	    0.009020	    0.012467	    0.021367	    0.033835	   -0.009311	   -0.019752	   -0.029062	    0.005712	    0.067116	    0.072828	    0.079194	    0.133191	    0.212385	   -0.030965	    0.016917	   -0.014048	   -0.054551	   -0.025421	   -0.079972	    0.004468	    0.003599	    0.008067
     8.850	0	0	    0	    0.028667	    0.037110	    0.065777	   -0.050722	    0.017675	   -0.033047	    0.000960	    0.100925	    0.101884	    0.057182	    0.179701	    0.236883	   -0.109285	    0.074452	   -0.034832	   -0.082516	    0.027961	   -0.054555	    0.031526	    0.013609	    0.045135	   -0.012382	   -0.012117	   -0.024498	   -0.000853	   -0.002211	   -0.003064	   -0.094890	   -0.032390	   -0.127280	   -0.064117	    0.023917	   -0.040200	   -0.128490	   -0.002454	   -0.130944	   -0.096616	   -0.036926	   -0.133542	   -0.004138	   -0.031716	   -0.035854	    0.002374	    0.004917	    0.007291	    0.011088	    0.021413	    0.032500	   -0.012393	   -0.022164	   -0.034557	    0.003718	    0.069572	    0.073290	    0.090780	    0.139905	    0.230685	   -0.035293	    0.017865	   -0.017428	   -0.059412	   -0.029263	   -0.088675	    0.003302	    0.002801	    0.006103
     8.925	0	0	    0	    0.031065	    0.036943	    0.068008	   -0.056039	    0.018111	   -0.037929	   -0.001903	    0.105164	    0.103261	    0.056553	    0.179548	    0.236102	   -0.106135	    0.069169	   -0.036965	   -0.093847	    0.025504	   -0.068343	    0.036993	    0.013674	    0.050667	   -0.011084	   -0.010743	   -0.021827	   -0.001116	   -0.000282	   -0.001399	   -0.100498	   -0.043869	   -0.144367	   -0.062124	    0.016540	   -0.045584	   -0.124390	   -0.008368	   -0.132757	   -0.107353	   -0.040619	   -0.147971	   -0.002092	   -0.032662	   -0.034754	    0.002642	    0.003136	    0.005778	    0.009480	    0.021565	    0.031045	   -0.016914	   -0.020354	   -0.037268	   -0.000877	    0.071261	    0.070384	    0.084506	    0.149443	    0.233949	   -0.041222	    0.020045	   -0.021176	   -0.064581	   -0.030331	   -0.094912	    0.002899	    0.001813	    0.004712
     9.000	0	0	    0	    0.033891	    0.039596	    0.073486	   -0.047572	    0.016503	   -0.031069	    0.001044	    0.105121	    0.106164	    0.060377	    0.179947	    0.240324	   -0.101510	    0.069525	   -0.031985	   -0.087552	    0.027597	   -0.059955	    0.038505	    0.021860	    0.060365	   -0.007022	   -0.009095	   -0.016117	    0.004792	   -0.001199	    0.003593	   -0.088708	   -0.042728	   -0.131436	   -0.053252	    0.015786	   -0.037466	   -0.113336	   -0.006642	   -0.119977	   -0.095748	   -0.042541	   -0.138289	    0.007098	   -0.028871	   -0.021773	    0.007733	    0.002862	    0.010595	    0.012752	    0.020094	    0.032846	   -0.007593	   -0.022259	   -0.029851	    0.018409	    0.071643	    0.090052	    0.103495	    0.147992	    0.251487	   -0.028551	    0.012034	   -0.016517	   -0.051811	   -0.033344	   -0.085155	    0.008195	    0.001283	    0.009478
     9.075	0	0	    0	    0.034724	    0.039100	    0.073824	   -0.043340	    0.019143	   -0.024197	    0.006429	    0.104809	    0.111239	    0.062962	    0.179282	    0.242244	   -0.098306	    0.071205	   -0.027101	   -0.081103	    0.028314	   -0.052789	    0.042016	    0.021243	    0.063259	   -0.006434	   -0.009404	   -0.015838	    0.008582	    0.000302	    0.008884	   -0.080423	   -0.037370	   -0.117793	   -0.047557	    0.020591	   -0.026967	   -0.109315	   -0.002556	   -0.111871	   -0.085585	   -0.036187	   -0.121772	    0.010714	   -0.027069	   -0.016356	    0.008180	    0.003574	    0.011754	    0.014628	    0.021161	    0.035789	    0.000753	   -0.018756	   -0.018003	    0.023569	    0.076278	    0.099848	    0.106884	    0.151050	    0.257934	   -0.015439	    0.018515	    0.003076	   -0.044641	   -0.026656	   -0.071297	    0.008051	    0.002623	    0.010674
     9.150	0	0	    0	    0.034130	    0.039179	    0.073309	   -0.042714	    0.019530	   -0.023183	    0.008167	    0.104884	    0.113051	    0.064343	    0.179390	    0.243734	   -0.096364	    0.071433	   -0.024931	   -0.080433	    0.029241	   -0.051192	    0.040583	    0.020550	    0.061134	   -0.007650	   -0.008433	   -0.016083	    0.007893	    0.001412	    0.009305	   -0.080011	   -0.035833	   -0.115844	   -0.045031	    0.020890	   -0.024141	   -0.107430	   -0.001094	   -0.108525	   -0.083685	   -0.034273	   -0.117959	    0.007765	   -0.026530	   -0.018765	    0.007449	    0.004363	    0.011812	    0.014842	    0.021426	    0.036268	   -0.000148	   -0.016790	   -0.016938	    0.022947	    0.077879	    0.100826	    0.106311	    0.151397	    0.257708	   -0.014583	    0.021879	    0.007296	   -0.044742	   -0.025269	   -0.070011	    0.007643	    0.001936	    0.009580
     9.225	0	0	    0	    0.035668	    0.038358	    0.074026	   -0.044137	    0.020237	   -0.023901	    0.007039	    0.106490	    0.113529	    0.064524	    0.179643	    0.244167	   -0.095926	    0.072688	   -0.023238	   -0.081132	    0.031313	   -0.049818	    0.033648	    0.028223	    0.061871	   -0.005671	   -0.010014	   -0.015685	    0.006359	    0.001744	    0.008103	   -0.081314	   -0.034044	   -0.115358	   -0.047258	    0.022347	   -0.024911	   -0.106727	   -0.000702	   -0.107429	   -0.085465	   -0.031699	   -0.117164	    0.005247	   -0.022645	   -0.017398	    0.006176	    0.005769	    0.011945	    0.013972	    0.021522	    0.035494	   -0.002102	   -0.017438	   -0.019540	    0.021975	    0.076309	    0.098284	    0.104069	    0.150324	    0.254393	   -0.018054	    0.022302	    0.004247	   -0.046824	   -0.024837	   -0.071661	    0.008055	    0.002496	    0.010551
     9.300	0	0	    0	    0.034437	    0.038510	    0.072947	   -0.042244	    0.018871	   -0.023373	    0.009195	    0.105392	    0.114587	    0.064680	    0.178968	    0.243647	   -0.093466	    0.072180	   -0.021286	   -0.078804	    0.029811	   -0.048993	    0.041336	    0.018714	    0.060050	   -0.006681	   -0.009088	   -0.015769	    0.007399	    0.001074	    0.008473	   -0.076597	   -0.036360	   -0.112957	   -0.043027	    0.021876	   -0.021151	   -0.104494	    0.000055	   -0.104439	   -0.082844	   -0.032679	   -0.115523	    0.010225	   -0.027489	   -0.017264	    0.007542	    0.003236	    0.010778	    0.014614	    0.021145	    0.035759	   -0.001904	   -0.016799	   -0.018702	    0.022736	    0.075409	    0.098145	    0.103282	    0.148940	    0.252222	   -0.016806	    0.021351	    0.004545	   -0.045106	   -0.026333	   -0.071438	    0.010599	   -0.000239	    0.010361
     9.375	0	0	    0	    0.034021	    0.037757	    0.071778	   -0.043937	    0.019640	   -0.024297	    0.007562	    0.106894	    0.114456	    0.065195	    0.177969	    0.243164	   -0.093683	    0.072971	   -0.020713	   -0.078857	    0.030640	   -0.048217	    0.031361	    0.027444	    0.058804	   -0.007899	   -0.008946	   -0.016845	    0.006393	    0.000783	    0.007176	   -0.080443	   -0.032961	   -0.113403	   -0.045620	    0.023441	   -0.022179	   -0.106346	    0.000110	   -0.106236	   -0.083627	   -0.031022	   -0.114649	    0.003416	   -0.022384	   -0.018968	    0.004659	    0.005682	    0.010342	    0.014174	    0.021175	    0.035349	   -0.003308	   -0.016308	   -0.019616	    0.017948	    0.076014	    0.093962	    0.097845	    0.149506	    0.247352	   -0.019235	    0.022130	    0.002895	   -0.047098	   -0.025467	   -0.072565	    0.005080	    0.004317	    0.009397
     9.450	0	0	    0	    0.032422	    0.038610	    0.071032	   -0.045940	    0.018560	   -0.027380	    0.006816	    0.105662	    0.112478	    0.064279	    0.178233	    0.242512	   -0.095150	    0.073006	   -0.022143	   -0.078870	    0.028432	   -0.050438	    0.043058	    0.011937	    0.054995	   -0.009953	   -0.008219	   -0.018173	    0.004407	    0.000967	    0.005374	   -0.084415	   -0.034566	   -0.118981	   -0.049257	    0.022585	   -0.026672	   -0.109252	   -0.000090	   -0.109342	   -0.087573	   -0.031268	   -0.118841	    0.004962	   -0.026210	   -0.021248	    0.007288	    0.002152	    0.009439	    0.013388	    0.020965	    0.034354	   -0.005153	   -0.017987	   -0.023140	    0.014450	    0.074934	    0.089383	    0.095365	    0.147505	    0.242870	   -0.022618	    0.020497	   -0.002121	   -0.050925	   -0.024939	   -0.075864	    0.008742	    0.000758	    0.009500
     9.525	0	0	    0	    0.030535	    0.039721	    0.070256	   -0.049201	    0.018942	   -0.030259	    0.004889	    0.105449	    0.110337	    0.061188	    0.180907	    0.242095	   -0.098157	    0.074110	   -0.024047	   -0.083141	    0.029038	   -0.054102	    0.036493	    0.016760	    0.053253	   -0.010517	   -0.009162	   -0.019679	    0.003681	   -0.000638	    0.003044	   -0.089626	   -0.036016	   -0.125642	   -0.052956	    0.021657	   -0.031299	   -0.114343	   -0.000222	   -0.114565	   -0.092088	   -0.031650	   -0.123739	    0.002623	   -0.028033	   -0.025410	    0.004054	    0.003947	    0.008001	    0.012159	    0.020857	    0.033015	   -0.009656	   -0.018250	   -0.027906	    0.009591	    0.074315	    0.083907	    0.091343	    0.147471	    0.238814	   -0.027994	    0.020202	   -0.007792	   -0.054124	   -0.026548	   -0.080672	    0.005563	    0.001992	    0.007555
     9.600	0	0	    0	    0.030426	    0.039414	    0.069840	   -0.052438	    0.018754	   -0.033684	    0.002059	    0.106140	    0.108200	    0.058394	    0.182864	    0.241257	   -0.101394	    0.074434	   -0.026960	   -0.085827	    0.029131	   -0.056697	    0.032393	    0.021842	    0.054235	   -0.012310	   -0.008970	   -0.021280	    0.001875	   -0.000345	    0.001530	   -0.094297	   -0.038606	   -0.132903	   -0.058791	    0.020084	   -0.038706	   -0.121022	   -0.000959	   -0.121981	   -0.096161	   -0.033518	   -0.129679	    0.002575	   -0.029688	   -0.027113	    0.005078	    0.002550	    0.007628	    0.011351	    0.020745	    0.032095	   -0.011979	   -0.020502	   -0.032481	    0.004267	    0.074546	    0.078813	    0.086762	    0.148572	    0.235335	   -0.032558	    0.018198	   -0.014360	   -0.056500	   -0.028506	   -0.085006	    0.005889	    0.001140	    0.007029
     9.675	0	0	    0	    0.031502	    0.042284	    0.073786	   -0.057109	    0.019835	   -0.037274	   -0.000375	    0.107248	    0.106872	    0.058298	    0.188756	    0.247054	   -0.111540	    0.074516	   -0.037024	   -0.090275	    0.029192	   -0.061083	    0.035377	    0.015417	    0.050793	   -0.013448	   -0.009524	   -0.022971	    0.001037	   -0.000386	    0.000651	   -0.105530	   -0.038139	   -0.143669	   -0.072245	    0.016239	   -0.056005	   -0.133330	   -0.004710	   -0.138040	   -0.102208	   -0.033128	   -0.135336	   -0.000444	   -0.030016	   -0.030460	    0.000178	    0.005894	    0.006073	    0.010339	    0.020543	    0.030882	   -0.014207	   -0.020094	   -0.034302	    0.001558	    0.075819	    0.077376	    0.087791	    0.152405	    0.240195	   -0.038663	    0.017958	   -0.020705	   -0.059677	   -0.028161	   -0.087839	    0.002333	    0.002108	    0.004442
     9.750	0	0	    0	    0.031797	    0.043089	    0.074887	   -0.062393	    0.017948	   -0.044445	   -0.006595	    0.113200	    0.106604	    0.055810	    0.193559	    0.249369	   -0.114043	    0.074287	   -0.039756	   -0.097504	    0.030719	   -0.066786	    0.032000	    0.020190	    0.052190	   -0.013355	   -0.010025	   -0.023380	   -0.001448	    0.002206	    0.000758	   -0.115187	   -0.046534	   -0.161722	   -0.075832	    0.013001	   -0.062831	   -0.138060	   -0.007038	   -0.145097	   -0.108582	   -0.035211	   -0.143793	   -0.005388	   -0.024958	   -0.030346	    0.000956	    0.003419	    0.004375	    0.008828	    0.020644	    0.029472	   -0.015987	   -0.019546	   -0.035533	   -0.004592	    0.077847	    0.073255	    0.081720	    0.154857	    0.236577	   -0.046549	    0.019548	   -0.027002	   -0.063085	   -0.026385	   -0.089470	    0.000407	    0.000729	    0.001136
     9.825	0	0	    0	    0.036996	    0.043898	    0.080894	   -0.059195	    0.015978	   -0.043217	   -0.005868	    0.113410	    0.107542	    0.057888	    0.194685	    0.252573	   -0.112418	    0.074437	   -0.037981	   -0.094681	    0.027867	   -0.066814	    0.043126	    0.016815	    0.059941	   -0.008364	   -0.009448	   -0.017812	    0.002253	    0.000105	    0.002358	   -0.109792	   -0.050805	   -0.160598	   -0.073253	    0.011467	   -0.061787	   -0.129793	   -0.007504	   -0.137298	   -0.106600	   -0.038134	   -0.144735	    0.007704	   -0.031821	   -0.024117	    0.005342	    0.002641	    0.007983	    0.010208	    0.018899	    0.029108	   -0.012534	   -0.021268	   -0.033802	    0.007867	    0.075303	    0.083170	    0.092305	    0.152405	    0.244711	   -0.044145	    0.013634	   -0.030510	   -0.059140	   -0.030029	   -0.089169	    0.003915	   -0.001007	    0.002909
     9.900	0	0	    0	    0.038544	    0.044953	    0.083497	   -0.051572	    0.017985	   -0.033587	   -0.000479	    0.113979	    0.113500	    0.061446	    0.194106	    0.255552	   -0.110440	    0.074384	   -0.036056	   -0.091516	    0.032074	   -0.059442	    0.044825	    0.020825	    0.065650	   -0.007604	   -0.008620	   -0.016224	    0.008490	    0.002537	    0.011027	   -0.098378	   -0.046985	   -0.145363	   -0.064695	    0.013509	   -0.051186	   -0.126144	   -0.005810	   -0.131954	   -0.092758	   -0.033980	   -0.126738	    0.009194	   -0.023086	   -0.013892	    0.005798	    0.004234	    0.010033	    0.013610	    0.020224	    0.033834	   -0.001209	   -0.017642	   -0.018852	    0.019952	    0.083093	    0.103046	    0.105470	    0.158353	    0.263822	   -0.021294	    0.017387	   -0.003907	   -0.046141	   -0.026576	   -0.072716	    0.006958	   -0.000811	    0.006147
