 [File Information]      		 [Data Line]	36
Measured Date	2024/05/28 100244
ID		Version	11.0
Name	oceane_13	[HeaderType]	11.0/11.0
Comment	
[Measurement Info.]
Holder Location	       0
Block Design	Off     
Pre.Rest Time	       0
Task Time	       0
Pos.Rest Time	       0
Loop	       0
Averaging	       1
Total Points	     819
[.INF File]
Filename	Cognitive1.INF
[Condition-1]
HV Switching	OFF
 R1 ,R2 ,R3 ,R4 ,R5 ,R6 ,R7 ,R8 
 120.00, 70.00,120.00,100.00, 90.00, 70.00,120.00,120.00
 Gain(X1,X4,X16,X64)
 R1 ,R2 ,R3 ,R4 ,R5 ,R6 ,R7 ,R8 
 1,1,1,1,1,1,1,1
[Analysis Condition]
Smoothed Type	None            
Smoothed Points	       0
Smoothed Loop	       0
Baseline Method	None            
Baseline location	
[Text Info.]
Output Mode	Continious      	Task No.		Data Type	Hb      
Time Range	    0.00	   61.35	Averaing	1
(1,3)(5,3)(5,7)(2,7)(2,4)(6,4)(6,8)(1,1)(3,3)(5,5)(7,7)(2,2)(4,4)(6,6)(8,8)(3,1)(3,5)(7,5)(7,2)(4,2)(4,6)(8,6)
         	     	     	     	    ch- 1	    ch- 1	    ch- 1	    ch- 2	    ch- 2	    ch- 2	    ch- 3	    ch- 3	    ch- 3	    ch- 4	    ch- 4	    ch- 4	    ch- 5	    ch- 5	    ch- 5	    ch- 6	    ch- 6	    ch- 6	    ch- 7	    ch- 7	    ch- 7	    ch- 8	    ch- 8	    ch- 8	    ch- 9	    ch- 9	    ch- 9	    ch-10	    ch-10	    ch-10	    ch-11	    ch-11	    ch-11	    ch-12	    ch-12	    ch-12	    ch-13	    ch-13	    ch-13	    ch-14	    ch-14	    ch-14	    ch-15	    ch-15	    ch-15	    ch-16	    ch-16	    ch-16	    ch-17	    ch-17	    ch-17	    ch-18	    ch-18	    ch-18	    ch-19	    ch-19	    ch-19	    ch-20	    ch-20	    ch-20	    ch-21	    ch-21	    ch-21	    ch-22	    ch-22	    ch-22
Time(sec)	Task	Mark	Count	    oxyHb   	  deoxyHb	  totalHb	    oxyHb   	  deoxyHb	  totalHb	    oxyHb   	  deoxyHb	  totalHb	    oxyHb   	  deoxyHb	  totalHb	    oxyHb   	  deoxyHb	  totalHb	    oxyHb   	  deoxyHb	  totalHb	    oxyHb   	  deoxyHb	  totalHb	    oxyHb   	  deoxyHb	  totalHb	    oxyHb   	  deoxyHb	  totalHb	    oxyHb   	  deoxyHb	  totalHb	    oxyHb   	  deoxyHb	  totalHb	    oxyHb   	  deoxyHb	  totalHb	    oxyHb   	  deoxyHb	  totalHb	    oxyHb   	  deoxyHb	  totalHb	    oxyHb   	  deoxyHb	  totalHb	    oxyHb   	  deoxyHb	  totalHb	    oxyHb   	  deoxyHb	  totalHb	    oxyHb   	  deoxyHb	  totalHb	    oxyHb   	  deoxyHb	  totalHb	    oxyHb   	  deoxyHb	  totalHb	    oxyHb   	  deoxyHb	  totalHb	    oxyHb   	  deoxyHb	  totalHb
     0.000	0	0Z	    0	    0.000000	    0.000000	    0.000000	    0.000000	    0.000000	    0.000000	    0.000000	    0.000000	    0.000000	    0.000000	    0.000000	    0.000000	    0.000000	    0.000000	    0.000000	    0.000000	    0.000000	    0.000000	    0.000000	    0.000000	    0.000000	    0.000000	    0.000000	    0.000000	    0.000000	    0.000000	    0.000000	    0.000000	    0.000000	    0.000000	    0.000000	    0.000000	    0.000000	    0.000000	    0.000000	    0.000000	    0.000000	    0.000000	    0.000000	    0.000000	    0.000000	    0.000000	    0.000000	    0.000000	    0.000000	    0.000000	    0.000000	    0.000000	    0.000000	    0.000000	    0.000000	    0.000000	    0.000000	    0.000000	    0.000000	    0.000000	    0.000000	    0.000000	    0.000000	    0.000000	    0.000000	    0.000000	    0.000000	    0.000000	    0.000000	    0.000000
     0.075	0	0	    0	    0.000648	   -0.001440	   -0.000792	   -0.000244	    0.000012	   -0.000232	   -0.000964	   -0.000069	   -0.001033	    0.001004	   -0.000726	    0.000277	   -0.000050	    0.000291	    0.000241	    0.000778	    0.000135	    0.000913	    0.003403	    0.000887	    0.004290	    0.002573	   -0.000453	    0.002120	    0.000817	   -0.000861	   -0.000043	   -0.000510	    0.000201	   -0.000309	   -0.000490	   -0.000729	   -0.001219	    0.000021	   -0.000288	   -0.000268	    0.000181	   -0.000174	    0.000008	   -0.002986	    0.005580	    0.002594	    0.001010	    0.001531	    0.002542	    0.001523	   -0.002732	   -0.001210	   -0.000092	   -0.000831	   -0.000923	   -0.000143	    0.000400	    0.000258	    0.000343	   -0.000154	    0.000189	   -0.000293	    0.000028	   -0.000264	   -0.001045	    0.000744	   -0.000301	    0.002879	   -0.000316	    0.002563
     0.150	0	0	    0	    0.004343	   -0.013683	   -0.009340	    0.000739	   -0.002425	   -0.001686	   -0.000589	   -0.001123	   -0.001712	   -0.000380	   -0.000362	   -0.000742	    0.000827	   -0.001119	   -0.000292	    0.002120	   -0.003200	   -0.001080	    0.002862	   -0.006144	   -0.003282	    0.001957	    0.000351	    0.002308	   -0.001805	    0.001907	    0.000102	    0.000078	   -0.000456	   -0.000378	   -0.001254	   -0.000284	   -0.001538	   -0.000160	   -0.000533	   -0.000693	    0.000813	   -0.000812	    0.000000	   -0.000551	    0.003618	    0.003067	    0.005415	   -0.003854	    0.001561	    0.000333	   -0.000943	   -0.000610	   -0.000052	   -0.000543	   -0.000595	   -0.000467	    0.001265	    0.000798	    0.000091	    0.000192	    0.000284	    0.000016	   -0.000227	   -0.000211	    0.000429	    0.000119	    0.000548	    0.009150	   -0.002558	    0.006593
     0.225	0	0	    0	   -0.003965	   -0.001137	   -0.005102	   -0.000712	   -0.001987	   -0.002699	   -0.002829	   -0.000486	   -0.003314	   -0.001718	    0.000523	   -0.001195	   -0.000104	   -0.000400	   -0.000504	    0.001476	   -0.001038	    0.000438	    0.001370	   -0.004847	   -0.003478	    0.001728	   -0.002433	   -0.000705	   -0.000816	    0.000242	   -0.000574	   -0.001670	    0.000217	   -0.001453	   -0.001959	   -0.000449	   -0.002407	   -0.001036	   -0.000438	   -0.001474	   -0.000975	    0.000734	   -0.000242	   -0.002183	    0.002719	    0.000536	    0.000475	   -0.001711	   -0.001236	    0.001229	   -0.003028	   -0.001799	   -0.000588	   -0.000936	   -0.001525	   -0.000797	    0.000511	   -0.000286	   -0.000065	    0.000304	    0.000239	   -0.000591	   -0.000542	   -0.001134	   -0.000015	   -0.000224	   -0.000239	    0.005587	   -0.001124	    0.004463
     0.300	0	0	    0	   -0.009011	    0.000538	   -0.008473	   -0.001134	   -0.002827	   -0.003960	   -0.004289	   -0.000877	   -0.005166	   -0.002032	    0.000133	   -0.001899	   -0.000506	   -0.001182	   -0.001689	   -0.000191	   -0.000625	   -0.000816	    0.002973	   -0.008391	   -0.005418	    0.000233	   -0.000809	   -0.000575	   -0.004251	    0.003148	   -0.001103	   -0.002219	   -0.000447	   -0.002666	   -0.003327	   -0.000373	   -0.003701	   -0.001810	   -0.000732	   -0.002542	   -0.001238	   -0.000899	   -0.002137	   -0.003341	    0.005470	    0.002128	    0.000918	   -0.002699	   -0.001781	   -0.000745	   -0.001380	   -0.002125	   -0.001984	   -0.000956	   -0.002940	   -0.002266	    0.001096	   -0.001170	   -0.000550	    0.000646	    0.000097	   -0.001599	   -0.000418	   -0.002017	   -0.001722	    0.000318	   -0.001404	    0.002919	    0.003600	    0.006519
     0.375	0	0	    0	   -0.000345	   -0.007704	   -0.008049	   -0.002752	   -0.002538	   -0.005290	   -0.006894	   -0.000881	   -0.007775	   -0.002092	   -0.000954	   -0.003046	   -0.000612	   -0.001200	   -0.001813	    0.000157	   -0.000830	   -0.000673	    0.000450	   -0.008878	   -0.008428	    0.001926	   -0.004478	   -0.002553	   -0.002604	    0.000582	   -0.002022	   -0.003507	   -0.000333	   -0.003840	   -0.004655	   -0.000476	   -0.005131	   -0.002649	   -0.000920	   -0.003569	   -0.002273	   -0.001410	   -0.003684	   -0.004358	    0.006425	    0.002067	    0.006125	   -0.012198	   -0.006073	    0.000303	   -0.004265	   -0.003962	   -0.002832	   -0.001863	   -0.004695	   -0.003618	    0.000408	   -0.003210	   -0.001461	    0.000865	   -0.000597	   -0.002324	   -0.001049	   -0.003372	   -0.001168	   -0.002397	   -0.003565	    0.006378	    0.001650	    0.008028
     0.450	0	0	    0	   -0.007875	    0.001134	   -0.006741	   -0.003766	   -0.001936	   -0.005702	   -0.007728	   -0.001485	   -0.009213	   -0.001846	   -0.001387	   -0.003233	   -0.001099	   -0.001947	   -0.003046	   -0.000407	   -0.002314	   -0.002721	    0.002815	   -0.011208	   -0.008393	   -0.003616	   -0.002015	   -0.005630	   -0.002602	    0.000273	   -0.002330	   -0.004566	   -0.000762	   -0.005328	   -0.005962	   -0.000203	   -0.006165	   -0.003607	   -0.000866	   -0.004472	   -0.003330	   -0.002121	   -0.005452	   -0.003909	    0.003456	   -0.000452	    0.004952	   -0.010751	   -0.005800	   -0.001237	   -0.004860	   -0.006097	   -0.004840	   -0.001554	   -0.006394	   -0.005634	    0.000560	   -0.005074	   -0.002809	    0.001323	   -0.001486	   -0.003644	   -0.001070	   -0.004714	   -0.003563	   -0.001301	   -0.004864	    0.005895	   -0.000129	    0.005766
     0.525	0	0	    0	    0.000493	   -0.010837	   -0.010344	   -0.004089	   -0.003541	   -0.007630	   -0.008110	   -0.003116	   -0.011226	   -0.000080	   -0.001968	   -0.002048	    0.000202	   -0.001543	   -0.001341	    0.000740	   -0.003217	   -0.002477	    0.001337	   -0.009924	   -0.008586	    0.007998	   -0.006765	    0.001233	   -0.002922	   -0.002661	   -0.005582	   -0.004173	   -0.001803	   -0.005975	   -0.004786	   -0.001135	   -0.005921	   -0.001637	   -0.001549	   -0.003186	   -0.005016	   -0.001620	   -0.006635	   -0.004078	    0.000757	   -0.003322	    0.010447	   -0.011977	   -0.001530	   -0.002460	   -0.004751	   -0.007211	   -0.004857	   -0.003101	   -0.007958	   -0.004476	   -0.000549	   -0.005025	   -0.001836	    0.000672	   -0.001164	   -0.004322	   -0.001851	   -0.006173	   -0.004121	   -0.001990	   -0.006111	    0.014483	   -0.003595	    0.010888
     0.600	0	0	    0	    0.016036	   -0.019587	   -0.003551	    0.000221	   -0.001803	   -0.001581	   -0.000210	   -0.002362	   -0.002572	    0.003594	   -0.001243	    0.002351	    0.003384	   -0.002447	    0.000937	    0.001261	   -0.001587	   -0.000326	   -0.000641	   -0.002837	   -0.003478	    0.012840	   -0.005406	    0.007434	    0.000162	   -0.000170	   -0.000007	    0.000852	   -0.001293	   -0.000441	    0.000624	   -0.000830	   -0.000206	    0.002201	   -0.001058	    0.001143	   -0.001861	   -0.002362	   -0.004224	   -0.003253	    0.008059	    0.004805	    0.019288	   -0.006672	    0.012616	    0.003960	   -0.004264	   -0.000305	    0.002805	   -0.002029	    0.000775	    0.001992	    0.000238	    0.002230	    0.003151	    0.000884	    0.004035	    0.001396	   -0.001319	    0.000077	    0.003451	   -0.002024	    0.001426	    0.020201	    0.004379	    0.024580
     0.675	0	0	    0	    0.004308	   -0.004084	    0.000223	    0.003737	   -0.000360	    0.003377	    0.003875	   -0.001344	    0.002531	    0.004702	    0.000006	    0.004708	    0.004080	   -0.001108	    0.002972	    0.000859	    0.001445	    0.002304	    0.006733	   -0.005831	    0.000902	    0.012940	   -0.002917	    0.010023	    0.003783	    0.001821	    0.005604	    0.002969	    0.000079	    0.003048	    0.003363	    0.000198	    0.003560	    0.003844	   -0.000296	    0.003549	    0.002289	   -0.003386	   -0.001097	    0.002973	    0.006283	    0.009255	    0.024085	   -0.007131	    0.016954	    0.008532	   -0.005029	    0.003503	    0.006831	   -0.001034	    0.005797	    0.004678	    0.000552	    0.005230	    0.004984	    0.001699	    0.006683	    0.006064	   -0.001295	    0.004770	    0.008323	   -0.002602	    0.005722	    0.023334	    0.006322	    0.029656
     0.750	0	0	    0	    0.008621	   -0.008170	    0.000451	    0.005854	   -0.000779	    0.005076	    0.004356	    0.000286	    0.004642	    0.004637	    0.000890	    0.005527	    0.004867	   -0.001185	    0.003682	    0.002346	    0.001555	    0.003901	    0.008125	   -0.005530	    0.002595	    0.010591	   -0.000210	    0.010381	    0.008271	   -0.000187	    0.008083	    0.004603	   -0.000123	    0.004480	    0.003966	    0.000844	    0.004810	    0.004423	   -0.000024	    0.004398	    0.002991	   -0.002179	    0.000813	    0.003513	    0.007017	    0.010530	    0.028419	   -0.007774	    0.020645	    0.011717	   -0.005403	    0.006314	    0.008599	    0.000096	    0.008695	    0.005076	    0.001451	    0.006527	    0.005690	    0.002144	    0.007834	    0.008116	   -0.001067	    0.007049	    0.010508	   -0.001322	    0.009186	    0.029190	    0.004244	    0.033435
     0.825	0	0	    0	    0.010093	   -0.005160	    0.004932	    0.004486	   -0.000030	    0.004456	    0.001909	    0.000684	    0.002593	    0.004323	    0.000367	    0.004690	    0.006229	   -0.000754	    0.005475	    0.002023	    0.002844	    0.004867	    0.004639	   -0.004287	    0.000352	    0.016217	   -0.001811	    0.014406	    0.010752	   -0.003534	    0.007217	    0.003434	    0.000180	    0.003614	    0.003799	    0.001133	    0.004932	    0.004741	    0.000044	    0.004785	    0.004216	   -0.002508	    0.001708	    0.004267	    0.004952	    0.009219	    0.033781	   -0.011268	    0.022513	    0.011563	   -0.004531	    0.007031	    0.008261	   -0.000607	    0.007654	    0.005217	    0.000675	    0.005892	    0.005307	    0.002049	    0.007356	    0.008050	   -0.001763	    0.006288	    0.010804	   -0.001494	    0.009310	    0.025403	    0.005778	    0.031181
     0.900	0	0	    0	    0.000459	    0.001468	    0.001927	    0.004076	    0.000574	    0.004650	    0.002989	    0.000014	    0.003003	    0.004169	    0.000255	    0.004424	    0.005808	    0.000394	    0.006202	    0.005376	    0.002083	    0.007459	    0.002088	    0.001060	    0.003148	    0.012748	    0.001523	    0.014271	    0.007936	   -0.000043	    0.007893	    0.003606	   -0.000332	    0.003275	    0.004176	    0.001615	    0.005791	    0.004879	    0.000395	    0.005273	    0.004484	   -0.001682	    0.002803	    0.004568	    0.005966	    0.010534	    0.031238	   -0.006593	    0.024645	    0.011411	   -0.004254	    0.007157	    0.008386	   -0.000894	    0.007492	    0.004859	    0.001187	    0.006046	    0.005827	    0.001740	    0.007567	    0.007812	   -0.001623	    0.006190	    0.010414	    0.000215	    0.010628	    0.026391	    0.004205	    0.030596
     0.975	0	0	    0	    0.016228	   -0.015024	    0.001204	    0.005376	   -0.001045	    0.004331	    0.004561	   -0.002609	    0.001951	    0.006334	   -0.001559	    0.004775	    0.006054	   -0.000686	    0.005368	    0.006980	   -0.002798	    0.004182	    0.007500	   -0.007851	   -0.000351	    0.015652	   -0.005039	    0.010614	    0.007442	    0.001211	    0.008653	    0.002659	   -0.000163	    0.002497	    0.003743	    0.002202	    0.005945	    0.004698	    0.000189	    0.004887	    0.003495	   -0.000772	    0.002723	    0.005621	    0.004916	    0.010538	    0.031168	   -0.011214	    0.019954	    0.009571	   -0.002326	    0.007244	    0.008086	   -0.000932	    0.007153	    0.004436	    0.001043	    0.005479	    0.005235	    0.002111	    0.007346	    0.007494	   -0.001536	    0.005958	    0.011753	    0.000104	    0.011857	    0.024496	    0.003510	    0.028006
     1.050	0	0	    0	    0.015510	   -0.018266	   -0.002756	    0.004562	   -0.001890	    0.002671	    0.001858	   -0.001063	    0.000795	    0.005284	   -0.000040	    0.005243	    0.006054	   -0.001070	    0.004984	    0.006005	   -0.002407	    0.003598	    0.007430	   -0.008326	   -0.000896	    0.017112	   -0.007394	    0.009718	    0.006763	   -0.000584	    0.006179	    0.002609	   -0.001043	    0.001566	    0.003632	    0.001876	    0.005508	    0.004692	    0.000102	    0.004794	    0.004873	   -0.002894	    0.001978	    0.005063	    0.004260	    0.009323	    0.028799	   -0.009969	    0.018830	    0.011859	   -0.006104	    0.005755	    0.007413	   -0.001196	    0.006217	    0.003433	    0.001032	    0.004464	    0.005082	    0.001941	    0.007023	    0.007290	   -0.002062	    0.005228	    0.011838	   -0.001323	    0.010515	    0.018712	    0.005559	    0.024271
     1.125	0	0	    0	    0.003389	   -0.002227	    0.001162	    0.003664	   -0.001939	    0.001725	    0.000211	   -0.001063	   -0.000852	    0.002937	    0.001626	    0.004563	    0.004968	    0.000379	    0.005347	    0.003862	   -0.000333	    0.003529	    0.002103	   -0.002219	   -0.000116	    0.013276	   -0.004134	    0.009143	    0.005440	    0.000492	    0.005931	    0.001171	   -0.000915	    0.000256	    0.002502	    0.002241	    0.004743	    0.003867	    0.000365	    0.004232	    0.004083	   -0.002805	    0.001278	    0.005254	    0.004810	    0.010064	    0.023936	   -0.006063	    0.017873	    0.010220	   -0.005762	    0.004458	    0.005814	   -0.001176	    0.004638	    0.002275	    0.000425	    0.002700	    0.003939	    0.002268	    0.006207	    0.006960	   -0.003347	    0.003613	    0.010368	    0.000063	    0.010431	    0.021447	    0.004162	    0.025609
     1.200	0	0	    0	    0.005872	   -0.008135	   -0.002263	    0.004195	   -0.004235	   -0.000040	   -0.000040	   -0.003524	   -0.003564	    0.003515	    0.000163	    0.003677	    0.005085	   -0.001151	    0.003934	    0.008205	   -0.007418	    0.000787	    0.013700	   -0.019681	   -0.005980	    0.014942	   -0.009059	    0.005883	    0.005926	   -0.001477	    0.004449	    0.000472	   -0.001270	   -0.000798	    0.001104	    0.002212	    0.003315	    0.003171	    0.000145	    0.003316	    0.003468	   -0.003043	    0.000425	    0.000784	    0.004644	    0.005428	    0.026855	   -0.012747	    0.014108	    0.009522	   -0.007159	    0.002363	    0.005019	   -0.001875	    0.003144	    0.000851	    0.000186	    0.001037	    0.003195	    0.002071	    0.005266	    0.005727	   -0.003252	    0.002476	    0.010532	   -0.002085	    0.008447	    0.020499	    0.000216	    0.020716
     1.275	0	0	    0	   -0.002898	   -0.001103	   -0.004001	    0.002147	   -0.003357	   -0.001210	   -0.002637	   -0.002210	   -0.004847	    0.001776	    0.001549	    0.003325	    0.003345	    0.000202	    0.003547	    0.002939	   -0.000858	    0.002081	    0.003044	   -0.007919	   -0.004876	    0.007113	   -0.004128	    0.002985	    0.006245	   -0.003165	    0.003080	   -0.000611	   -0.001173	   -0.001784	    0.000147	    0.002356	    0.002503	    0.002054	    0.000118	    0.002173	    0.003294	   -0.003550	   -0.000256	    0.007086	   -0.000169	    0.006917	    0.021798	   -0.009694	    0.012104	    0.006839	   -0.006042	    0.000797	    0.004296	   -0.002936	    0.001360	    0.000175	   -0.000443	   -0.000268	    0.001740	    0.002342	    0.004081	    0.004814	   -0.003613	    0.001201	    0.008941	   -0.001405	    0.007537	    0.020438	    0.001974	    0.022412
     1.350	0	0	    0	    0.015881	   -0.009720	    0.006160	    0.000283	   -0.002668	   -0.002385	   -0.002562	   -0.003422	   -0.005984	    0.004772	    0.000112	    0.004884	    0.006430	   -0.001549	    0.004882	    0.003508	   -0.001277	    0.002231	    0.009704	   -0.013678	   -0.003975	    0.016432	   -0.007855	    0.008577	    0.002627	    0.000228	    0.002856	   -0.001089	   -0.001564	   -0.002653	    0.000546	    0.001804	    0.002351	    0.003490	   -0.000407	    0.003083	    0.002055	   -0.003017	   -0.000961	    0.002485	    0.003660	    0.006145	    0.037940	   -0.020560	    0.017380	    0.007494	   -0.009438	   -0.001944	    0.003779	   -0.003886	   -0.000107	    0.001667	   -0.001786	   -0.000119	    0.002368	    0.001281	    0.003649	    0.003813	   -0.003874	   -0.000061	    0.007095	   -0.000688	    0.006407	    0.027629	   -0.000963	    0.026666
     1.425	0	0	    0	    0.010580	   -0.009274	    0.001306	    0.006057	   -0.003629	    0.002427	    0.003385	   -0.002395	    0.000990	    0.006949	    0.000833	    0.007783	    0.007011	   -0.001198	    0.005813	    0.005201	   -0.003676	    0.001526	    0.006578	   -0.013267	   -0.006689	    0.016950	   -0.008226	    0.008724	    0.007730	   -0.004207	    0.003522	    0.003857	   -0.001753	    0.002104	    0.005722	    0.001476	    0.007197	    0.006954	   -0.000147	    0.006807	    0.004645	   -0.003554	    0.001091	    0.008762	    0.000781	    0.009543	    0.034472	   -0.016693	    0.017780	    0.013447	   -0.010564	    0.002883	    0.011409	   -0.003649	    0.007761	    0.007407	   -0.001049	    0.006358	    0.006398	    0.001212	    0.007610	    0.009741	   -0.005113	    0.004628	    0.013774	   -0.002022	    0.011752	    0.028858	    0.004078	    0.032936
     1.500	0	0	    0	    0.015898	   -0.005535	    0.010363	    0.010234	   -0.002671	    0.007563	    0.007136	   -0.000932	    0.006203	    0.009063	    0.001149	    0.010212	    0.008458	   -0.001020	    0.007437	    0.004628	   -0.000127	    0.004501	    0.010824	   -0.007319	    0.003505	    0.019242	   -0.006412	    0.012830	    0.009622	    0.000594	    0.010216	    0.006870	   -0.001080	    0.005790	    0.007446	    0.002086	    0.009532	    0.008873	    0.000148	    0.009022	    0.007378	   -0.002741	    0.004637	    0.008851	    0.006410	    0.015261	    0.052029	   -0.023703	    0.028326	    0.015459	   -0.007675	    0.007784	    0.015509	   -0.001678	    0.013831	    0.010535	   -0.000499	    0.010036	    0.008829	    0.001327	    0.010155	    0.013258	   -0.003526	    0.009732	    0.018335	   -0.001657	    0.016678	    0.036553	    0.004495	    0.041048
     1.575	0	0	    0	    0.008653	   -0.000524	    0.008128	    0.010366	   -0.000970	    0.009396	    0.008843	   -0.000869	    0.007974	    0.008686	    0.002113	    0.010800	    0.008934	   -0.001317	    0.007617	    0.006856	   -0.002046	    0.004810	    0.008415	   -0.008922	   -0.000507	    0.021235	   -0.007364	    0.013871	    0.013996	   -0.001474	    0.012522	    0.008057	   -0.000758	    0.007299	    0.007899	    0.002599	    0.010498	    0.009008	    0.000583	    0.009591	    0.010062	   -0.003751	    0.006310	    0.012785	    0.002307	    0.015092	    0.035964	   -0.010307	    0.025657	    0.017817	   -0.008544	    0.009273	    0.017652	   -0.001835	    0.015817	    0.011219	    0.000124	    0.011343	    0.009312	    0.001830	    0.011143	    0.015379	   -0.003942	    0.011437	    0.018930	   -0.000490	    0.018440	    0.036806	    0.002893	    0.039699
     1.650	0	0	    0	    0.015347	   -0.011127	    0.004219	    0.008913	   -0.001432	    0.007481	    0.008033	   -0.002092	    0.005941	    0.008862	    0.000834	    0.009696	    0.009313	   -0.001946	    0.007367	    0.006810	   -0.001131	    0.005679	    0.009593	   -0.009395	    0.000199	    0.026222	   -0.011270	    0.014952	    0.014990	   -0.003153	    0.011838	    0.007400	   -0.001433	    0.005967	    0.007907	    0.001998	    0.009905	    0.009457	    0.000130	    0.009587	    0.011264	   -0.004631	    0.006632	    0.011105	    0.004685	    0.015790	    0.042336	   -0.012324	    0.030012	    0.017689	   -0.009399	    0.008290	    0.016353	   -0.002078	    0.014275	    0.010921	   -0.000274	    0.010647	    0.009045	    0.001655	    0.010700	    0.015242	   -0.004744	    0.010498	    0.019663	   -0.001534	    0.018130	    0.034492	    0.002669	    0.037161
     1.725	0	0	    0	    0.008189	   -0.002783	    0.005407	    0.013310	   -0.005374	    0.007936	    0.008432	   -0.001692	    0.006740	    0.009420	    0.000882	    0.010301	    0.010179	   -0.001876	    0.008303	    0.015575	   -0.008311	    0.007264	    0.025147	   -0.022311	    0.002836	    0.021274	   -0.007913	    0.013360	    0.016346	   -0.003629	    0.012717	    0.007904	   -0.001662	    0.006241	    0.008109	    0.002190	    0.010300	    0.009484	    0.000588	    0.010072	    0.010775	   -0.003608	    0.007167	    0.014650	    0.000614	    0.015264	    0.047509	   -0.018540	    0.028969	    0.017806	   -0.010138	    0.007668	    0.017041	   -0.003173	    0.013869	    0.011314	   -0.000499	    0.010814	    0.009558	    0.001581	    0.011139	    0.015664	   -0.005335	    0.010329	    0.021212	   -0.002901	    0.018311	    0.036065	   -0.000331	    0.035734
     1.800	0	0	    0	    0.016888	   -0.006040	    0.010847	    0.010053	   -0.001459	    0.008594	    0.008046	   -0.001672	    0.006373	    0.010462	    0.000307	    0.010769	    0.009903	   -0.001457	    0.008446	    0.009904	   -0.002696	    0.007208	    0.016359	   -0.012530	    0.003829	    0.026713	   -0.006572	    0.020141	    0.013353	    0.001327	    0.014679	    0.007256	   -0.001470	    0.005786	    0.007268	    0.002439	    0.009707	    0.009079	    0.000588	    0.009667	    0.010571	   -0.003246	    0.007325	    0.013539	    0.002510	    0.016049	    0.048836	   -0.014780	    0.034056	    0.016911	   -0.009802	    0.007109	    0.016583	   -0.002771	    0.013812	    0.011060	   -0.000588	    0.010472	    0.009666	    0.001805	    0.011471	    0.014713	   -0.004394	    0.010319	    0.019072	   -0.000191	    0.018880	    0.033582	    0.001282	    0.034864
     1.875	0	0	    0	    0.017680	   -0.015484	    0.002197	    0.011150	   -0.003968	    0.007182	    0.007739	   -0.003009	    0.004730	    0.009393	    0.000979	    0.010372	    0.010629	   -0.002991	    0.007637	    0.010952	   -0.004847	    0.006105	    0.014441	   -0.016847	   -0.002406	    0.026517	   -0.002831	    0.023687	    0.012325	    0.000608	    0.012933	    0.006613	   -0.001974	    0.004639	    0.007141	    0.002173	    0.009315	    0.009097	    0.000090	    0.009187	    0.010162	   -0.003554	    0.006607	    0.012076	    0.001332	    0.013409	    0.047842	   -0.020352	    0.027490	    0.017702	   -0.012220	    0.005482	    0.015770	   -0.002973	    0.012798	    0.010548	   -0.001722	    0.008826	    0.009251	    0.001972	    0.011223	    0.015073	   -0.005904	    0.009169	    0.019577	   -0.002791	    0.016786	    0.032327	   -0.002288	    0.030039
     1.950	0	0	    0	    0.021741	   -0.014333	    0.007408	    0.009211	   -0.002671	    0.006540	    0.005675	   -0.002004	    0.003671	    0.009919	    0.000692	    0.010611	    0.009918	   -0.002943	    0.006975	    0.010234	   -0.004812	    0.005422	    0.013582	   -0.013259	    0.000323	    0.025716	   -0.002888	    0.022828	    0.012980	   -0.001248	    0.011732	    0.005807	   -0.002414	    0.003393	    0.006469	    0.001676	    0.008145	    0.008122	    0.000077	    0.008200	    0.009935	   -0.004083	    0.005852	    0.013497	   -0.000743	    0.012754	    0.046501	   -0.019497	    0.027005	    0.016045	   -0.013017	    0.003028	    0.014309	   -0.002986	    0.011323	    0.009336	   -0.002069	    0.007267	    0.008833	    0.001775	    0.010608	    0.013520	   -0.005717	    0.007803	    0.017647	   -0.001914	    0.015733	    0.030450	   -0.002094	    0.028356
     2.025	0	0	    0	    0.008470	   -0.002430	    0.006040	    0.009347	   -0.003994	    0.005353	    0.005134	   -0.003365	    0.001769	    0.009910	    0.000129	    0.010038	    0.009487	   -0.003173	    0.006313	    0.009176	   -0.002598	    0.006577	    0.018448	   -0.024871	   -0.006423	    0.018078	    0.001147	    0.019226	    0.012638	   -0.001421	    0.011217	    0.004976	   -0.002698	    0.002278	    0.005092	    0.001644	    0.006736	    0.007167	   -0.000197	    0.006970	    0.009183	   -0.004698	    0.004486	    0.016302	   -0.002811	    0.013491	    0.037565	   -0.018383	    0.019182	    0.014548	   -0.014720	   -0.000171	    0.013834	   -0.004353	    0.009481	    0.007855	   -0.002411	    0.005444	    0.007765	    0.001972	    0.009737	    0.013151	   -0.006852	    0.006299	    0.016646	   -0.002334	    0.014312	    0.025674	    0.000129	    0.025802
     2.100	0	0	    0	    0.014438	   -0.009274	    0.005163	    0.008695	   -0.004699	    0.003996	    0.005035	   -0.004772	    0.000263	    0.007802	    0.001239	    0.009041	    0.008622	   -0.003624	    0.004997	    0.012279	   -0.008185	    0.004095	    0.023125	   -0.024611	   -0.001486	    0.022858	   -0.004904	    0.017954	    0.011106	   -0.002224	    0.008882	    0.004430	   -0.003268	    0.001161	    0.003975	    0.001318	    0.005293	    0.006294	   -0.000685	    0.005608	    0.008090	   -0.005567	    0.002523	    0.010250	   -0.000003	    0.010247	    0.038332	   -0.017035	    0.021297	    0.012592	   -0.015376	   -0.002784	    0.012481	   -0.004455	    0.008026	    0.007097	   -0.002881	    0.004216	    0.007038	    0.001750	    0.008788	    0.011988	   -0.007254	    0.004734	    0.017307	   -0.005831	    0.011477	    0.023432	   -0.003544	    0.019889
     2.175	0	0	    0	    0.023717	   -0.021729	    0.001988	    0.006375	   -0.004127	    0.002248	    0.001636	   -0.003827	   -0.002192	    0.008484	   -0.000488	    0.007996	    0.008996	   -0.004631	    0.004365	    0.008476	   -0.004613	    0.003863	    0.016135	   -0.024192	   -0.008057	    0.024391	   -0.005489	    0.018903	    0.009759	   -0.002274	    0.007485	    0.003132	   -0.003679	   -0.000547	    0.003051	    0.000773	    0.003824	    0.006195	   -0.001355	    0.004840	    0.007418	   -0.006607	    0.000812	    0.009210	    0.002103	    0.011313	    0.034305	   -0.018870	    0.015435	    0.011414	   -0.016885	   -0.005471	    0.011898	   -0.005965	    0.005933	    0.006589	   -0.003979	    0.002610	    0.005926	    0.001651	    0.007577	    0.010806	   -0.007680	    0.003126	    0.014696	   -0.004350	    0.010346	    0.025759	   -0.004780	    0.020979
     2.250	0	0	    0	    0.013912	   -0.000176	    0.013736	    0.009928	   -0.005139	    0.004789	    0.005725	   -0.004054	    0.001671	    0.010570	    0.001179	    0.011748	    0.009785	   -0.003009	    0.006776	    0.011867	   -0.005467	    0.006400	    0.013418	   -0.016220	   -0.002801	    0.020320	    0.004736	    0.025056	    0.011767	   -0.003542	    0.008226	    0.005887	   -0.004471	    0.001417	    0.006539	    0.000295	    0.006834	    0.009505	   -0.001675	    0.007829	    0.007789	   -0.006799	    0.000989	    0.015196	   -0.000924	    0.014272	    0.036468	   -0.010127	    0.026341	    0.013975	   -0.018166	   -0.004190	    0.014575	   -0.006467	    0.008108	    0.011565	   -0.003972	    0.007593	    0.009174	    0.000888	    0.010062	    0.013311	   -0.008601	    0.004710	    0.016881	   -0.003879	    0.013002	    0.032405	   -0.002619	    0.029787
     2.325	0	0	    0	    0.021430	   -0.007571	    0.013859	    0.013183	   -0.003371	    0.009812	    0.013262	   -0.003117	    0.010145	    0.013867	    0.001485	    0.015352	    0.011490	   -0.002372	    0.009118	    0.009896	   -0.000699	    0.009197	    0.017596	   -0.013167	    0.004429	    0.030151	   -0.005517	    0.024634	    0.016527	   -0.003182	    0.013344	    0.009762	   -0.002699	    0.007063	    0.010311	    0.000956	    0.011267	    0.012036	   -0.000968	    0.011068	    0.011093	   -0.006954	    0.004139	    0.010221	    0.005294	    0.015515	    0.052086	   -0.016720	    0.035365	    0.014795	   -0.015247	   -0.000452	    0.021156	   -0.004823	    0.016333	    0.015589	   -0.002802	    0.012787	    0.012687	    0.001636	    0.014323	    0.018367	   -0.007516	    0.010851	    0.022245	   -0.004011	    0.018234	    0.032434	   -0.001174	    0.031260
     2.400	0	0	    0	    0.030005	   -0.016979	    0.013026	    0.017548	   -0.005509	    0.012038	    0.015505	   -0.003054	    0.012451	    0.016121	    0.000531	    0.016653	    0.014608	   -0.004760	    0.009848	    0.017810	   -0.007310	    0.010500	    0.029663	   -0.024842	    0.004821	    0.024178	   -0.002304	    0.021874	    0.018460	   -0.001064	    0.017396	    0.012442	   -0.003176	    0.009266	    0.011793	    0.001171	    0.012964	    0.013369	   -0.000665	    0.012704	    0.012845	   -0.006509	    0.006336	    0.023765	   -0.005955	    0.017810	    0.049497	   -0.016210	    0.033287	    0.016878	   -0.015903	    0.000975	    0.023661	   -0.004052	    0.019609	    0.018173	   -0.003660	    0.014513	    0.014684	    0.001464	    0.016148	    0.021374	   -0.007144	    0.014230	    0.025579	   -0.004274	    0.021305	    0.034011	   -0.002121	    0.031890
     2.475	0	0	    0	    0.025436	   -0.012646	    0.012791	    0.014392	   -0.002266	    0.012126	    0.013090	   -0.001809	    0.011281	    0.015540	    0.001018	    0.016558	    0.013543	   -0.003797	    0.009746	    0.013624	   -0.003500	    0.010124	    0.019639	   -0.012219	    0.007420	    0.027107	   -0.009989	    0.017118	    0.019313	   -0.001536	    0.017777	    0.012172	   -0.002782	    0.009390	    0.011790	    0.000729	    0.012520	    0.013198	   -0.000618	    0.012580	    0.013800	   -0.006486	    0.007314	    0.015203	    0.004444	    0.019647	    0.062639	   -0.029394	    0.033245	    0.017972	   -0.017163	    0.000809	    0.023439	   -0.003560	    0.019879	    0.017735	   -0.003563	    0.014173	    0.014706	    0.001371	    0.016077	    0.022172	   -0.007740	    0.014432	    0.025928	   -0.003181	    0.022747	    0.036820	   -0.004134	    0.032686
     2.550	0	0	    0	    0.023928	   -0.013575	    0.010353	    0.016073	   -0.004952	    0.011121	    0.014918	   -0.003673	    0.011245	    0.016390	    0.000650	    0.017040	    0.014382	   -0.004000	    0.010382	    0.015519	   -0.004456	    0.011063	    0.032063	   -0.025688	    0.006376	    0.024434	   -0.011115	    0.013319	    0.017273	   -0.000028	    0.017246	    0.012343	   -0.003168	    0.009175	    0.011905	    0.000484	    0.012388	    0.013855	   -0.000888	    0.012967	    0.014100	   -0.006975	    0.007125	    0.021567	   -0.004062	    0.017505	    0.059798	   -0.027864	    0.031934	    0.016336	   -0.016914	   -0.000579	    0.023965	   -0.004844	    0.019122	    0.018195	   -0.004137	    0.014058	    0.015184	    0.001127	    0.016311	    0.022024	   -0.008098	    0.013926	    0.026733	   -0.004554	    0.022178	    0.039069	   -0.004751	    0.034318
     2.625	0	0	    0	    0.009293	    0.004231	    0.013524	    0.015885	   -0.004434	    0.011451	    0.013856	   -0.003088	    0.010768	    0.015130	    0.002490	    0.017619	    0.013142	   -0.002044	    0.011098	    0.016366	   -0.003246	    0.013121	    0.028837	   -0.023309	    0.005528	    0.017088	   -0.006848	    0.010240	    0.020665	   -0.002959	    0.017706	    0.011993	   -0.002616	    0.009377	    0.012268	    0.000429	    0.012697	    0.013462	   -0.000397	    0.013065	    0.014215	   -0.006582	    0.007633	    0.022729	   -0.003840	    0.018889	    0.057061	   -0.022561	    0.034500	    0.015905	   -0.017395	   -0.001490	    0.024869	   -0.005598	    0.019271	    0.018433	   -0.004279	    0.014154	    0.015226	    0.001513	    0.016739	    0.022304	   -0.008321	    0.013983	    0.027293	   -0.004600	    0.022693	    0.038614	   -0.005457	    0.033157
     2.700	0	0	    0	    0.021406	   -0.009666	    0.011739	    0.015922	   -0.004994	    0.010928	    0.013615	   -0.004063	    0.009552	    0.015199	    0.001893	    0.017092	    0.014511	   -0.003775	    0.010736	    0.019251	   -0.006542	    0.012709	    0.029537	   -0.025270	    0.004267	    0.019453	   -0.010627	    0.008826	    0.020865	   -0.001884	    0.018982	    0.012105	   -0.003819	    0.008287	    0.011260	    0.000750	    0.012009	    0.013526	   -0.000823	    0.012702	    0.014725	   -0.007205	    0.007520	    0.022554	   -0.005334	    0.017220	    0.042336	   -0.012324	    0.030012	    0.016191	   -0.017578	   -0.001387	    0.023805	   -0.005117	    0.018688	    0.017535	   -0.004162	    0.013372	    0.014718	    0.001702	    0.016420	    0.022231	   -0.008798	    0.013433	    0.027057	   -0.004801	    0.022256	    0.030813	   -0.000524	    0.030289
     2.775	0	0	    0	    0.023200	   -0.007675	    0.015525	    0.011497	   -0.001042	    0.010455	    0.010039	   -0.002505	    0.007533	    0.015069	    0.002117	    0.017186	    0.014056	   -0.003820	    0.010235	    0.011646	    0.001185	    0.012831	    0.007968	   -0.003077	    0.004891	    0.017830	   -0.012493	    0.005337	    0.021501	   -0.004263	    0.017238	    0.010530	   -0.002971	    0.007559	    0.010822	    0.000150	    0.010972	    0.012746	   -0.000806	    0.011940	    0.013923	   -0.006878	    0.007045	    0.013733	    0.003192	    0.016925	    0.049621	   -0.022802	    0.026819	    0.014855	   -0.019212	   -0.004357	    0.023197	   -0.005953	    0.017244	    0.016965	   -0.004900	    0.012065	    0.014332	    0.001272	    0.015604	    0.021492	   -0.009736	    0.011756	    0.025542	   -0.004436	    0.021106	    0.035087	   -0.005726	    0.029360
     2.850	0	0	    0	    0.018972	   -0.008720	    0.010252	    0.012589	   -0.003236	    0.009352	    0.010541	   -0.004602	    0.005938	    0.015723	    0.000599	    0.016322	    0.013515	   -0.004230	    0.009285	    0.015340	   -0.003992	    0.011348	    0.023020	   -0.020866	    0.002154	    0.018596	   -0.015787	    0.002808	    0.018095	   -0.002068	    0.016027	    0.009873	   -0.003644	    0.006229	    0.010540	   -0.000468	    0.010072	    0.012227	   -0.001194	    0.011032	    0.013701	   -0.007718	    0.005983	    0.018528	   -0.002578	    0.015949	    0.045333	   -0.023009	    0.022325	    0.014489	   -0.020913	   -0.006424	    0.021444	   -0.005774	    0.015670	    0.015874	   -0.005245	    0.010629	    0.013502	    0.001307	    0.014809	    0.020456	   -0.009956	    0.010501	    0.024534	   -0.004563	    0.019971	    0.030450	   -0.002094	    0.028356
     2.925	0	0	    0	    0.012718	   -0.009185	    0.003534	    0.011035	   -0.003262	    0.007773	    0.007305	   -0.002896	    0.004408	    0.014082	    0.001137	    0.015219	    0.013459	   -0.005094	    0.008365	    0.011483	   -0.000369	    0.011114	    0.007575	   -0.007378	    0.000196	    0.015043	   -0.017739	   -0.002696	    0.017712	   -0.003796	    0.013916	    0.008904	   -0.003859	    0.005045	    0.009144	   -0.000097	    0.009047	    0.011508	   -0.001384	    0.010124	    0.012766	   -0.007573	    0.005193	    0.013539	    0.002510	    0.016049	    0.040202	   -0.022804	    0.017398	    0.011160	   -0.020059	   -0.008899	    0.020764	   -0.006961	    0.013803	    0.014919	   -0.005970	    0.008949	    0.012440	    0.001202	    0.013641	    0.019138	   -0.009845	    0.009293	    0.023512	   -0.004570	    0.018942	    0.031155	   -0.003527	    0.027628
     3.000	0	0	    0	    0.023523	   -0.018682	    0.004840	    0.012089	   -0.005850	    0.006239	    0.008551	   -0.006301	    0.002251	    0.013183	    0.000397	    0.013580	    0.013232	   -0.005506	    0.007725	    0.013774	   -0.005219	    0.008555	    0.019146	   -0.022786	   -0.003641	    0.009797	   -0.014676	   -0.004880	    0.017391	   -0.003025	    0.014366	    0.008092	   -0.004638	    0.003453	    0.008199	   -0.000187	    0.008012	    0.010611	   -0.001661	    0.008949	    0.012514	   -0.007768	    0.004745	    0.023584	   -0.009367	    0.014216	    0.043610	   -0.028193	    0.015417	    0.010139	   -0.021963	   -0.011824	    0.019179	   -0.007024	    0.012155	    0.014109	   -0.006299	    0.007810	    0.011559	    0.000957	    0.012515	    0.017809	   -0.009992	    0.007816	    0.022475	   -0.004510	    0.017965	    0.029284	   -0.005938	    0.023346
     3.075	0	0	    0	    0.017827	   -0.015646	    0.002181	    0.009698	   -0.004743	    0.004955	    0.005989	   -0.005566	    0.000423	    0.012094	    0.000641	    0.012735	    0.012360	   -0.005180	    0.007180	    0.010587	   -0.003806	    0.006781	    0.011177	   -0.012931	   -0.001754	    0.014505	   -0.019091	   -0.004586	    0.015845	   -0.002997	    0.012849	    0.006532	   -0.004303	    0.002229	    0.007313	   -0.000577	    0.006736	    0.009869	   -0.001760	    0.008109	    0.011676	   -0.008147	    0.003529	    0.014021	   -0.003324	    0.010697	    0.041556	   -0.029248	    0.012309	    0.007943	   -0.021253	   -0.013310	    0.018097	   -0.007840	    0.010257	    0.013469	   -0.007096	    0.006373	    0.010603	    0.000960	    0.011563	    0.016703	   -0.010501	    0.006202	    0.020623	   -0.005521	    0.015102	    0.022864	   -0.006142	    0.016722
     3.150	0	0	    0	    0.020146	   -0.012309	    0.007837	    0.011643	   -0.005013	    0.006630	    0.010025	   -0.007020	    0.003005	    0.016834	   -0.000482	    0.016352	    0.014949	   -0.005265	    0.009685	    0.015365	   -0.006889	    0.008476	    0.018098	   -0.022014	   -0.003916	    0.017060	   -0.016947	    0.000113	    0.018840	   -0.007091	    0.011749	    0.009821	   -0.005685	    0.004136	    0.011156	   -0.001369	    0.009787	    0.013497	   -0.002219	    0.011279	    0.012462	   -0.008952	    0.003511	    0.019012	   -0.006208	    0.012804	    0.047468	   -0.030494	    0.016974	    0.010635	   -0.024424	   -0.013789	    0.020954	   -0.008993	    0.011961	    0.018248	   -0.007836	    0.010412	    0.013837	   -0.000067	    0.013771	    0.019016	   -0.011756	    0.007260	    0.023624	   -0.006999	    0.016625	    0.029345	   -0.008803	    0.020541
     3.225	0	0	    0	    0.031505	   -0.017468	    0.014036	    0.016663	   -0.002797	    0.013865	    0.017105	   -0.005287	    0.011818	    0.018834	    0.000671	    0.019505	    0.016557	   -0.004481	    0.012076	    0.014238	   -0.000836	    0.013401	    0.021216	   -0.015912	    0.005305	    0.022572	   -0.019782	    0.002789	    0.019872	   -0.000076	    0.019796	    0.014188	   -0.004376	    0.009812	    0.015538	   -0.000571	    0.014967	    0.016198	   -0.001771	    0.014426	    0.014807	   -0.007576	    0.007231	    0.016707	    0.002506	    0.019213	    0.055351	   -0.030521	    0.024830	    0.011899	   -0.021515	   -0.009617	    0.026952	   -0.006284	    0.020668	    0.023342	   -0.006889	    0.016453	    0.017545	    0.000388	    0.017932	    0.024195	   -0.010636	    0.013559	    0.028584	   -0.004713	    0.023871	    0.036980	   -0.010244	    0.026736
     3.300	0	0	    0	    0.024005	   -0.009412	    0.014593	    0.017450	   -0.002117	    0.015332	    0.018602	   -0.004496	    0.014106	    0.020014	    0.000524	    0.020538	    0.017372	   -0.005120	    0.012252	    0.013914	   -0.000767	    0.013147	    0.021286	   -0.016209	    0.005077	    0.019519	   -0.018248	    0.001271	    0.026475	   -0.002058	    0.024416	    0.015751	   -0.003681	    0.012069	    0.017143	   -0.000116	    0.017028	    0.017429	   -0.001545	    0.015884	    0.018112	   -0.008489	    0.009623	    0.019133	    0.002293	    0.021426	    0.053127	   -0.026704	    0.026424	    0.014896	   -0.022732	   -0.007836	    0.029761	   -0.005501	    0.024260	    0.025486	   -0.006504	    0.018982	    0.018731	    0.000595	    0.019326	    0.027166	   -0.010459	    0.016707	    0.031660	   -0.004044	    0.027616	    0.042816	   -0.009199	    0.033617
     3.375	0	0	    0	    0.025114	   -0.015077	    0.010037	    0.018766	   -0.002799	    0.015967	    0.018336	   -0.004158	    0.014177	    0.020088	    0.000058	    0.020146	    0.017225	   -0.004618	    0.012607	    0.018709	   -0.004973	    0.013736	    0.020538	   -0.020228	    0.000310	    0.017041	   -0.020764	   -0.003723	    0.029046	   -0.004547	    0.024498	    0.016067	   -0.003599	    0.012468	    0.017238	   -0.000028	    0.017210	    0.017697	   -0.001390	    0.016308	    0.018530	   -0.007544	    0.010986	    0.021940	   -0.002010	    0.019930	    0.060327	   -0.038694	    0.021633	    0.014187	   -0.022367	   -0.008180	    0.030740	   -0.005916	    0.024824	    0.026001	   -0.007083	    0.018917	    0.019242	    0.000437	    0.019679	    0.027511	   -0.009787	    0.017724	    0.031462	   -0.003728	    0.027734	    0.042147	   -0.010658	    0.031488
     3.450	0	0	    0	    0.033231	   -0.019652	    0.013579	    0.018913	   -0.003733	    0.015180	    0.017252	   -0.004741	    0.012511	    0.021461	   -0.000910	    0.020551	    0.017933	   -0.004887	    0.013046	    0.016915	   -0.004819	    0.012095	    0.019252	   -0.018288	    0.000964	    0.019695	   -0.024895	   -0.005200	    0.027555	   -0.001562	    0.025993	    0.016131	   -0.004007	    0.012124	    0.017063	   -0.000125	    0.016939	    0.017799	   -0.001270	    0.016529	    0.019352	   -0.008196	    0.011155	    0.026920	   -0.006288	    0.020632	    0.057173	   -0.033722	    0.023452	    0.013122	   -0.022208	   -0.009086	    0.030490	   -0.006892	    0.023598	    0.025894	   -0.007510	    0.018384	    0.018966	    0.000567	    0.019533	    0.027571	   -0.010556	    0.017015	    0.032627	   -0.004724	    0.027902	    0.042273	   -0.010127	    0.032146
     3.525	0	0	    0	    0.022497	   -0.016693	    0.005803	    0.018974	   -0.004580	    0.014394	    0.016911	   -0.005354	    0.011557	    0.020048	    0.000557	    0.020605	    0.018022	   -0.005864	    0.012158	    0.018468	   -0.007574	    0.010894	    0.024422	   -0.024653	   -0.000231	    0.012963	   -0.022966	   -0.010003	    0.026492	   -0.001320	    0.025172	    0.016445	   -0.003782	    0.012663	    0.017433	   -0.000663	    0.016770	    0.017530	   -0.001425	    0.016105	    0.018994	   -0.007310	    0.011683	    0.019958	   -0.001523	    0.018435	    0.056389	   -0.036889	    0.019500	    0.013108	   -0.023319	   -0.010211	    0.030417	   -0.006637	    0.023780	    0.025927	   -0.007385	    0.018542	    0.019113	    0.000389	    0.019503	    0.027857	   -0.010858	    0.016999	    0.031798	   -0.003269	    0.028528	    0.036188	   -0.007313	    0.028875
     3.600	0	0	    0	    0.031073	   -0.021905	    0.009167	    0.019224	   -0.005910	    0.013314	    0.016047	   -0.005637	    0.010410	    0.020302	   -0.000025	    0.020277	    0.017896	   -0.005704	    0.012192	    0.021058	   -0.009649	    0.011409	    0.030582	   -0.033861	   -0.003279	    0.014071	   -0.028150	   -0.014078	    0.027332	   -0.002641	    0.024691	    0.015934	   -0.004581	    0.011354	    0.016518	   -0.000324	    0.016194	    0.017276	   -0.001605	    0.015672	    0.019235	   -0.008213	    0.011022	    0.023328	   -0.005206	    0.018122	    0.047550	   -0.029334	    0.018216	    0.012403	   -0.024228	   -0.011825	    0.030135	   -0.007016	    0.023119	    0.025364	   -0.007070	    0.018294	    0.018785	    0.000254	    0.019039	    0.027859	   -0.011288	    0.016571	    0.031512	   -0.004040	    0.027472	    0.033276	   -0.005848	    0.027427
     3.675	0	0	    0	    0.027547	   -0.016023	    0.011524	    0.018602	   -0.004841	    0.013761	    0.014956	   -0.005507	    0.009449	    0.018945	    0.000410	    0.019355	    0.017553	   -0.004798	    0.012755	    0.017057	   -0.004368	    0.012689	    0.027276	   -0.024004	    0.003272	    0.012654	   -0.028609	   -0.015955	    0.028209	   -0.002912	    0.025298	    0.014986	   -0.004409	    0.010577	    0.015380	   -0.000398	    0.014983	    0.016499	   -0.001354	    0.015145	    0.019007	   -0.007894	    0.011113	    0.022488	   -0.005499	    0.016990	    0.051308	   -0.032412	    0.018896	    0.011534	   -0.024805	   -0.013271	    0.029063	   -0.007310	    0.021753	    0.024955	   -0.008198	    0.016757	    0.018043	    0.000287	    0.018330	    0.026599	   -0.011514	    0.015085	    0.031508	   -0.004394	    0.027114	    0.033244	   -0.007836	    0.025408
     3.750	0	0	    0	    0.028846	   -0.022617	    0.006229	    0.016011	   -0.004110	    0.011901	    0.013623	   -0.005754	    0.007869	    0.018105	    0.000250	    0.018355	    0.017964	   -0.005397	    0.012567	    0.018413	   -0.005812	    0.012601	    0.026420	   -0.026643	   -0.000223	    0.011527	   -0.028675	   -0.017148	    0.026762	   -0.003989	    0.022773	    0.013770	   -0.004544	    0.009226	    0.015248	   -0.000735	    0.014513	    0.015679	   -0.001768	    0.013911	    0.019877	   -0.008481	    0.011396	    0.024991	   -0.007567	    0.017424	    0.043112	   -0.028933	    0.014180	    0.010347	   -0.025144	   -0.014796	    0.028206	   -0.007727	    0.020478	    0.023514	   -0.008590	    0.014924	    0.017172	    0.000120	    0.017292	    0.025148	   -0.011860	    0.013288	    0.032524	   -0.006561	    0.025963	    0.026199	   -0.009209	    0.016990
     3.825	0	0	    0	    0.011514	   -0.005588	    0.005927	    0.016160	   -0.005701	    0.010459	    0.011868	   -0.006067	    0.005801	    0.017597	   -0.000122	    0.017475	    0.016515	   -0.004740	    0.011775	    0.014984	   -0.003006	    0.011978	    0.021722	   -0.025003	   -0.003281	    0.008993	   -0.023476	   -0.014483	    0.025373	   -0.003181	    0.022192	    0.012629	   -0.004706	    0.007922	    0.013960	   -0.000282	    0.013678	    0.014268	   -0.001794	    0.012474	    0.018427	   -0.006839	    0.011588	    0.020318	   -0.002549	    0.017769	    0.052997	   -0.037257	    0.015740	    0.008073	   -0.024344	   -0.016271	    0.026939	   -0.008072	    0.018867	    0.023257	   -0.009400	    0.013857	    0.016343	    0.000005	    0.016347	    0.023608	   -0.011916	    0.011691	    0.028885	   -0.003411	    0.025473	    0.028579	   -0.014367	    0.014212
     3.900	0	0	    0	    0.031696	   -0.011246	    0.020450	    0.015204	   -0.004503	    0.010702	    0.011143	   -0.006845	    0.004298	    0.016155	    0.000301	    0.016455	    0.016229	   -0.005634	    0.010596	    0.016287	   -0.005467	    0.010820	    0.016948	   -0.023692	   -0.006744	    0.006713	   -0.015570	   -0.008857	    0.026225	   -0.004393	    0.021832	    0.011441	   -0.004960	    0.006481	    0.012447	   -0.000418	    0.012029	    0.013359	   -0.002244	    0.011115	    0.017722	   -0.007333	    0.010389	    0.021131	   -0.003314	    0.017817	    0.034836	   -0.022801	    0.012035	    0.007150	   -0.026304	   -0.019154	    0.026023	   -0.007995	    0.018029	    0.021101	   -0.008787	    0.012314	    0.014949	    0.000235	    0.015184	    0.022354	   -0.012156	    0.010198	    0.027772	   -0.003793	    0.023978	    0.015439	   -0.012871	    0.002568
     3.975	0	0	    0	    0.024196	   -0.013208	    0.010988	    0.019112	   -0.003247	    0.015865	    0.009333	   -0.005579	    0.003754	    0.016322	   -0.000852	    0.015470	    0.015866	   -0.005329	    0.010537	    0.018571	   -0.003363	    0.015208	    0.019375	   -0.026069	   -0.006694	    0.007634	   -0.032819	   -0.025186	    0.023526	   -0.000051	    0.023475	    0.008586	   -0.005132	    0.003454	    0.011848	   -0.000939	    0.010909	    0.012803	   -0.002597	    0.010206	    0.016924	   -0.008219	    0.008705	    0.020275	   -0.001650	    0.018624	    0.022740	   -0.050565	   -0.027825	    0.006445	   -0.039361	   -0.032916	    0.026375	   -0.005851	    0.020523	    0.019368	   -0.010702	    0.008666	    0.014138	   -0.000020	    0.014117	    0.021289	   -0.012163	    0.009126	    0.028150	   -0.004300	    0.023850	   -0.005169	   -0.029308	   -0.034476
     4.050	0	0	    0	    0.029739	   -0.011642	    0.018097	    0.015989	    0.000188	    0.016177	    0.008710	   -0.006498	    0.002212	    0.018601	   -0.001774	    0.016827	    0.017944	   -0.006003	    0.011942	    0.019583	    0.000335	    0.019918	    0.016364	   -0.023458	   -0.007094	    0.004718	   -0.031852	   -0.027133	    0.025633	   -0.000311	    0.025322	    0.008780	   -0.006353	    0.002427	    0.012485	   -0.001624	    0.010860	    0.013697	   -0.002986	    0.010711	    0.016051	   -0.008358	    0.007692	    0.022590	   -0.004224	    0.018366	    0.024471	   -0.057276	   -0.032804	   -0.004797	   -0.038654	   -0.043451	    0.025137	   -0.005811	    0.019326	    0.020153	   -0.012062	    0.008090	    0.014238	   -0.000629	    0.013609	    0.019367	   -0.012290	    0.007077	    0.027694	   -0.004471	    0.023224	   -0.004117	   -0.039294	   -0.043411
     4.125	0	0	    0	    0.028087	   -0.011000	    0.017087	    0.022011	   -0.000626	    0.021385	    0.018494	   -0.008174	    0.010319	    0.021747	   -0.000890	    0.020858	    0.018041	   -0.005257	    0.012784	    0.020245	   -0.001959	    0.018286	    0.019965	   -0.026428	   -0.006463	   -0.007271	   -0.022267	   -0.029537	    0.026710	    0.000297	    0.027007	    0.013979	   -0.006930	    0.007049	    0.018222	   -0.001468	    0.016754	    0.017655	   -0.002610	    0.015044	    0.017688	   -0.008503	    0.009185	    0.030345	   -0.004019	    0.026326	    0.030419	   -0.042907	   -0.012488	   -0.001166	   -0.043146	   -0.044312	    0.031954	   -0.006939	    0.025015	    0.026282	   -0.011486	    0.014796	    0.018898	   -0.000750	    0.018149	    0.024417	   -0.013828	    0.010589	    0.032010	   -0.002468	    0.029542	    0.013803	   -0.031433	   -0.017630
     4.200	0	0	    0	    0.040333	   -0.026451	    0.013882	    0.024985	   -0.001889	    0.023096	    0.021773	   -0.005261	    0.016513	    0.024195	   -0.000518	    0.023677	    0.020826	   -0.006424	    0.014403	    0.021627	   -0.001342	    0.020286	    0.027918	   -0.030083	   -0.002165	    0.003110	   -0.026940	   -0.023830	    0.030670	    0.001400	    0.032070	    0.017038	   -0.005513	    0.011526	    0.020836	   -0.000663	    0.020173	    0.019787	   -0.002052	    0.017735	    0.020542	   -0.008844	    0.011698	    0.030424	   -0.001823	    0.028602	    0.039987	   -0.033015	    0.006972	    0.004907	   -0.041798	   -0.036892	    0.035335	   -0.005532	    0.029803	    0.029379	   -0.010394	    0.018985	    0.021590	    0.000275	    0.021865	    0.027782	   -0.012079	    0.015703	    0.034481	   -0.001666	    0.032815	    0.024541	   -0.028808	   -0.004267
     4.275	0	0	    0	    0.031027	   -0.016151	    0.014876	    0.023823	   -0.000117	    0.023706	    0.023400	   -0.004987	    0.018413	    0.024786	   -0.000084	    0.024702	    0.020411	   -0.005806	    0.014605	    0.024162	   -0.005634	    0.018528	    0.029103	   -0.030445	   -0.001342	    0.006458	   -0.032858	   -0.026399	    0.034353	   -0.001590	    0.032763	    0.018843	   -0.005184	    0.013659	    0.021891	   -0.000074	    0.021817	    0.020325	   -0.001626	    0.018699	    0.021944	   -0.008815	    0.013129	    0.028652	   -0.001615	    0.027037	    0.044295	   -0.033568	    0.010727	    0.003878	   -0.036480	   -0.032602	    0.037790	   -0.006460	    0.031330	    0.030699	   -0.010355	    0.020344	    0.022674	    0.000561	    0.023235	    0.030051	   -0.012022	    0.018029	    0.035870	   -0.001972	    0.033899	    0.021030	   -0.018984	    0.002046
     4.350	0	0	    0	    0.026943	   -0.018800	    0.008143	    0.022743	   -0.001458	    0.021285	    0.020580	   -0.003969	    0.016612	    0.023684	    0.000385	    0.024069	    0.019917	   -0.005741	    0.014175	    0.020639	   -0.003880	    0.016760	    0.024064	   -0.025819	   -0.001755	    0.005831	   -0.034748	   -0.028917	    0.034565	   -0.000817	    0.033748	    0.018044	   -0.004818	    0.013226	    0.021647	   -0.000728	    0.020919	    0.020274	   -0.001834	    0.018440	    0.022209	   -0.009031	    0.013179	    0.032802	   -0.007307	    0.025495	    0.045435	   -0.034769	    0.010666	    0.003363	   -0.034461	   -0.031098	    0.036511	   -0.006292	    0.030219	    0.030887	   -0.010193	    0.020694	    0.022784	    0.000026	    0.022810	    0.030360	   -0.012455	    0.017904	    0.034474	   -0.002075	    0.032398	    0.021636	   -0.017052	    0.004584
     4.425	0	0	    0	    0.024579	   -0.014398	    0.010181	    0.023568	   -0.002742	    0.020826	    0.021217	   -0.004815	    0.016402	    0.023685	    0.001224	    0.024909	    0.021012	   -0.006655	    0.014358	    0.024032	   -0.006941	    0.017091	    0.020075	   -0.021845	   -0.001770	    0.004902	   -0.034553	   -0.029652	    0.035414	   -0.002371	    0.033043	    0.018216	   -0.004583	    0.013633	    0.021992	   -0.001478	    0.020514	    0.020627	   -0.002051	    0.018576	    0.022640	   -0.009306	    0.013334	    0.028157	   -0.002947	    0.025210	    0.050336	   -0.040311	    0.010025	    0.004668	   -0.033376	   -0.028708	    0.036938	   -0.006574	    0.030364	    0.032227	   -0.010486	    0.021741	    0.023231	   -0.000124	    0.023107	    0.030775	   -0.012552	    0.018224	    0.036318	   -0.004419	    0.031899	    0.026107	   -0.018625	    0.007482
     4.500	0	0	    0	    0.032868	   -0.022048	    0.010819	    0.023900	   -0.003567	    0.020333	    0.021497	   -0.005868	    0.015629	    0.025209	   -0.000822	    0.024387	    0.020304	   -0.006940	    0.013364	    0.022977	   -0.004761	    0.018216	    0.026397	   -0.028648	   -0.002250	    0.004305	   -0.036438	   -0.032133	    0.037050	   -0.002647	    0.034403	    0.018730	   -0.005409	    0.013321	    0.021726	   -0.001227	    0.020499	    0.019946	   -0.002076	    0.017870	    0.022479	   -0.009275	    0.013204	    0.025809	   -0.000338	    0.025471	    0.047586	   -0.038463	    0.009123	    0.006315	   -0.035613	   -0.029299	    0.037975	   -0.007574	    0.030402	    0.031842	   -0.009912	    0.021930	    0.022899	    0.000080	    0.022979	    0.031162	   -0.012908	    0.018254	    0.035698	   -0.003700	    0.031999	    0.026687	   -0.019127	    0.007561
     4.575	0	0	    0	    0.016990	    0.000898	    0.017889	    0.021340	   -0.000982	    0.020358	    0.020226	   -0.004966	    0.015260	    0.024252	    0.001094	    0.025345	    0.019452	   -0.005232	    0.014220	    0.020584	   -0.000007	    0.020578	    0.022793	   -0.019576	    0.003217	    0.005086	   -0.024510	   -0.019424	    0.034931	   -0.000542	    0.034389	    0.017456	   -0.005139	    0.012317	    0.021571	   -0.001736	    0.019835	    0.019720	   -0.002537	    0.017183	    0.021823	   -0.008827	    0.012996	    0.029747	   -0.002639	    0.027108	    0.045738	   -0.034208	    0.011531	    0.003766	   -0.033312	   -0.029546	    0.037050	   -0.007144	    0.029905	    0.031263	   -0.010460	    0.020803	    0.022980	   -0.000172	    0.022808	    0.029803	   -0.011759	    0.018044	    0.034655	   -0.002324	    0.032332	    0.015574	   -0.024788	   -0.009214
     4.650	0	0	    0	    0.042780	   -0.026710	    0.016069	    0.023508	   -0.002563	    0.020946	    0.019329	   -0.006074	    0.013255	    0.025068	   -0.001735	    0.023333	    0.020376	   -0.007185	    0.013191	    0.024389	   -0.002075	    0.022313	    0.025145	   -0.022432	    0.002712	    0.005095	   -0.024508	   -0.019413	    0.035667	   -0.000751	    0.034915	    0.016854	   -0.005296	    0.011558	    0.020512	   -0.001627	    0.018886	    0.019209	   -0.002794	    0.016415	    0.023302	   -0.010189	    0.013113	    0.028432	   -0.002224	    0.026209	    0.032391	   -0.026578	    0.005812	    0.004295	   -0.036812	   -0.032517	    0.036713	   -0.006921	    0.029792	    0.029532	   -0.010549	    0.018983	    0.022044	   -0.000146	    0.021898	    0.029450	   -0.012823	    0.016627	    0.035328	   -0.003611	    0.031716	    0.000731	   -0.030202	   -0.029470
     4.725	0	0	    0	    0.030250	   -0.015092	    0.015158	    0.023709	   -0.001724	    0.021985	    0.017417	   -0.005505	    0.011911	    0.023700	   -0.001119	    0.022582	    0.020485	   -0.007565	    0.012920	    0.023734	    0.000170	    0.023903	    0.023292	   -0.020263	    0.003029	    0.002683	   -0.024425	   -0.021742	    0.034718	   -0.001532	    0.033187	    0.015680	   -0.006016	    0.009664	    0.019390	   -0.001804	    0.017587	    0.018524	   -0.003137	    0.015387	    0.021115	   -0.009084	    0.012031	    0.027601	   -0.001502	    0.026099	    0.025759	   -0.024058	    0.001701	    0.000939	   -0.037452	   -0.036513	    0.036181	   -0.006489	    0.029692	    0.028296	   -0.011301	    0.016995	    0.020714	   -0.000211	    0.020503	    0.028340	   -0.013119	    0.015222	    0.034379	   -0.003524	    0.030855	   -0.003443	   -0.035329	   -0.038773
     4.800	0	0	    0	    0.031251	   -0.006326	    0.024925	    0.025542	   -0.002495	    0.023048	    0.016993	   -0.005939	    0.011054	    0.022871	   -0.000006	    0.022864	    0.019894	   -0.006342	    0.013552	    0.029352	   -0.002261	    0.027091	    0.029288	   -0.026007	    0.003281	   -0.003080	   -0.018843	   -0.021923	    0.032130	    0.002181	    0.034312	    0.014940	   -0.006668	    0.008272	    0.018559	   -0.002165	    0.016394	    0.017588	   -0.003027	    0.014561	    0.021122	   -0.009638	    0.011484	    0.030131	   -0.006534	    0.023596	    0.032898	   -0.034022	   -0.001123	   -0.002385	   -0.038288	   -0.040673	    0.035218	   -0.006097	    0.029121	    0.027167	   -0.011669	    0.015498	    0.020102	   -0.000568	    0.019534	    0.026968	   -0.012827	    0.014141	    0.033122	   -0.003562	    0.029561	   -0.011284	   -0.039069	   -0.050354
     4.875	0	0	    0	    0.032041	   -0.018152	    0.013889	    0.026885	   -0.001557	    0.025328	    0.015960	   -0.006619	    0.009341	    0.022112	   -0.000461	    0.021651	    0.019752	   -0.006398	    0.013355	    0.027605	    0.002243	    0.029848	    0.027765	   -0.022518	    0.005246	    0.002168	   -0.037066	   -0.034898	    0.034214	   -0.000774	    0.033439	    0.013905	   -0.006790	    0.007114	    0.017298	   -0.002135	    0.015163	    0.017155	   -0.003109	    0.014046	    0.020957	   -0.009602	    0.011355	    0.030826	   -0.005682	    0.025143	    0.030709	   -0.039821	   -0.009112	   -0.002052	   -0.039289	   -0.041342	    0.036244	   -0.005884	    0.030360	    0.025582	   -0.012487	    0.013096	    0.018891	   -0.000445	    0.018446	    0.025769	   -0.012718	    0.013051	    0.034645	   -0.003341	    0.031304	   -0.015671	   -0.048382	   -0.064052
     4.950	0	0	    0	    0.029299	   -0.012524	    0.016775	    0.022885	    0.002586	    0.025472	    0.012800	   -0.006177	    0.006624	    0.019574	    0.000124	    0.019698	    0.017773	   -0.005551	    0.012222	    0.027418	    0.002842	    0.030261	    0.021100	   -0.016225	    0.004875	   -0.006220	   -0.034784	   -0.041004	    0.031114	    0.004361	    0.035475	    0.011482	   -0.006737	    0.004745	    0.016422	   -0.001935	    0.014488	    0.015159	   -0.002538	    0.012621	    0.019635	   -0.008623	    0.011013	    0.026061	    0.001409	    0.027470	    0.023976	   -0.036051	   -0.012075	    0.002758	   -0.046011	   -0.043253	    0.033274	   -0.003045	    0.030229	    0.023369	   -0.013206	    0.010163	    0.017965	   -0.000705	    0.017261	    0.023185	   -0.012197	    0.010988	    0.031730	   -0.000930	    0.030800	   -0.016886	   -0.051431	   -0.068317
     5.025	0	0	    0	    0.005666	    0.008124	    0.013789	    0.021605	    0.002047	    0.023652	    0.011867	   -0.006284	    0.005582	    0.019969	    0.000454	    0.020423	    0.017195	   -0.005051	    0.012144	    0.023287	    0.005255	    0.028542	    0.022764	   -0.017253	    0.005512	   -0.008209	   -0.030623	   -0.038831	    0.032288	    0.001570	    0.033858	    0.010981	   -0.007086	    0.003896	    0.016831	   -0.002566	    0.014265	    0.015849	   -0.003155	    0.012694	    0.018341	   -0.009092	    0.009249	    0.028122	   -0.002043	    0.026079	    0.030821	   -0.043836	   -0.013015	   -0.004372	   -0.044036	   -0.048408	    0.032342	   -0.004993	    0.027348	    0.026595	   -0.015255	    0.011341	    0.018430	   -0.001513	    0.016917	    0.022079	   -0.013342	    0.008737	    0.031279	   -0.001939	    0.029340	   -0.011858	   -0.054914	   -0.066773
     5.100	0	0	    0	    0.021446	   -0.006884	    0.014562	    0.026493	    0.001158	    0.027650	    0.019903	   -0.006100	    0.013804	    0.024453	   -0.002374	    0.022079	    0.020809	   -0.007179	    0.013630	    0.027977	    0.001220	    0.029197	    0.026349	   -0.018690	    0.007659	   -0.007321	   -0.033392	   -0.040713	    0.037438	    0.002627	    0.040065	    0.015733	   -0.006716	    0.009017	    0.021691	   -0.002183	    0.019507	    0.019679	   -0.003379	    0.016300	    0.022513	   -0.010502	    0.012011	    0.034520	   -0.000857	    0.033663	    0.032675	   -0.038461	   -0.005786	   -0.001309	   -0.045812	   -0.047121	    0.038918	   -0.004730	    0.034188	    0.031819	   -0.013709	    0.018110	    0.022802	   -0.001382	    0.021420	    0.026679	   -0.012535	    0.014144	    0.037792	   -0.001430	    0.036362	   -0.005009	   -0.045066	   -0.050075
     5.175	0	0	    0	    0.018972	   -0.008720	    0.010252	    0.027987	    0.000468	    0.028456	    0.021759	   -0.003185	    0.018574	    0.025232	   -0.001623	    0.023609	    0.021710	   -0.006189	    0.015521	    0.030261	    0.004106	    0.034367	    0.023604	   -0.018926	    0.004678	   -0.014134	   -0.023638	   -0.037773	    0.041070	    0.001720	    0.042790	    0.017506	   -0.005127	    0.012379	    0.023721	   -0.001634	    0.022086	    0.020674	   -0.002585	    0.018089	    0.024028	   -0.007963	    0.016065	    0.033572	   -0.001377	    0.032194	    0.024892	   -0.055087	   -0.030195	    0.000256	   -0.044338	   -0.044082	    0.040831	   -0.004535	    0.036296	    0.033944	   -0.013873	    0.020071	    0.024503	   -0.000879	    0.023624	    0.029420	   -0.012109	    0.017311	    0.040341	   -0.000033	    0.040308	   -0.003819	   -0.048000	   -0.051819
     5.250	0	0	    0	    0.038563	   -0.032791	    0.005773	    0.027050	    0.000179	    0.027229	    0.020506	   -0.002391	    0.018115	    0.025136	   -0.002025	    0.023110	    0.022240	   -0.007339	    0.014901	    0.031348	    0.004878	    0.036226	    0.023840	   -0.020226	    0.003615	   -0.009089	   -0.028839	   -0.037928	    0.043282	    0.000983	    0.044265	    0.018282	   -0.005342	    0.012940	    0.023407	   -0.001908	    0.021499	    0.020635	   -0.002657	    0.017978	    0.025935	   -0.008706	    0.017229	    0.037861	   -0.002990	    0.034871	    0.021756	   -0.056969	   -0.035213	    0.000860	   -0.043282	   -0.042422	    0.042258	   -0.005495	    0.036763	    0.033717	   -0.013970	    0.019747	    0.024597	   -0.000884	    0.023714	    0.030448	   -0.012407	    0.018041	    0.044042	   -0.000533	    0.043510	   -0.006419	   -0.046673	   -0.053092
     5.325	0	0	    0	    0.027862	   -0.019248	    0.008614	    0.024068	    0.001148	    0.025216	    0.019669	   -0.003955	    0.015713	    0.025247	   -0.001849	    0.023398	    0.020262	   -0.005706	    0.014556	    0.030292	    0.003153	    0.033445	    0.025863	   -0.018006	    0.007857	   -0.012670	   -0.027159	   -0.039829	    0.041653	    0.002017	    0.043670	    0.016956	   -0.004924	    0.012033	    0.023196	   -0.003044	    0.020152	    0.020456	   -0.002719	    0.017737	    0.025500	   -0.008715	    0.016784	    0.036556	   -0.000462	    0.036094	    0.023163	   -0.046368	   -0.023205	    0.001370	   -0.041517	   -0.040147	    0.040520	   -0.005696	    0.034824	    0.033644	   -0.014778	    0.018866	    0.024074	   -0.001261	    0.022813	    0.029620	   -0.013005	    0.016615	    0.041926	    0.000424	    0.042350	    0.002697	   -0.043072	   -0.040375
     5.400	0	0	    0	    0.023395	   -0.024094	   -0.000700	    0.023246	   -0.000217	    0.023030	    0.020977	   -0.005908	    0.015069	    0.024509	   -0.001738	    0.022771	    0.020550	   -0.006697	    0.013853	    0.029023	    0.002930	    0.031953	    0.024081	   -0.021649	    0.002433	   -0.010567	   -0.032167	   -0.042734	    0.041930	    0.000031	    0.041962	    0.017344	   -0.005730	    0.011615	    0.023116	   -0.003306	    0.019810	    0.020387	   -0.002878	    0.017509	    0.026211	   -0.009653	    0.016558	    0.036478	   -0.005571	    0.030907	    0.021081	   -0.037041	   -0.015959	    0.000631	   -0.040192	   -0.039561	    0.040406	   -0.006350	    0.034056	    0.033975	   -0.014768	    0.019207	    0.024573	   -0.001903	    0.022670	    0.029807	   -0.013325	    0.016482	    0.040647	   -0.000941	    0.039706	    0.007082	   -0.040916	   -0.033834
     5.475	0	0	    0	    0.030376	   -0.025249	    0.005127	    0.022066	    0.000849	    0.022915	    0.017632	   -0.003287	    0.014345	    0.023666	   -0.002157	    0.021508	    0.019867	   -0.006384	    0.013483	    0.026765	    0.002113	    0.028878	    0.019824	   -0.018256	    0.001567	   -0.011053	   -0.033431	   -0.044484	    0.041858	   -0.001577	    0.040282	    0.017347	   -0.006238	    0.011110	    0.023077	   -0.003805	    0.019272	    0.019764	   -0.002879	    0.016884	    0.026019	   -0.009086	    0.016934	    0.028772	   -0.000265	    0.028507	    0.027894	   -0.038040	   -0.010146	    0.000958	   -0.040140	   -0.039181	    0.039722	   -0.006984	    0.032738	    0.033956	   -0.014785	    0.019170	    0.024420	   -0.001891	    0.022528	    0.029578	   -0.013202	    0.016375	    0.039771	   -0.002151	    0.037620	    0.006958	   -0.038864	   -0.031906
     5.550	0	0	    0	    0.027090	   -0.025995	    0.001095	    0.022339	   -0.001139	    0.021199	    0.017015	   -0.003571	    0.013444	    0.023239	   -0.001949	    0.021290	    0.019412	   -0.006989	    0.012422	    0.024908	    0.002334	    0.027242	    0.019253	   -0.020324	   -0.001071	   -0.012303	   -0.035349	   -0.047653	    0.037233	    0.002277	    0.039510	    0.015797	   -0.005952	    0.009846	    0.021923	   -0.003363	    0.018560	    0.018825	   -0.002697	    0.016128	    0.024671	   -0.008467	    0.016204	    0.030180	   -0.001473	    0.028707	    0.020518	   -0.030562	   -0.010044	   -0.001726	   -0.038578	   -0.040304	    0.038831	   -0.007194	    0.031637	    0.032813	   -0.014311	    0.018503	    0.023991	   -0.001698	    0.022293	    0.028255	   -0.012344	    0.015911	    0.037069	   -0.000656	    0.036413	   -0.001112	   -0.027373	   -0.028485
     5.625	0	0	    0	    0.024820	   -0.028665	   -0.003845	    0.020115	   -0.001062	    0.019052	    0.015748	   -0.005602	    0.010146	    0.021763	   -0.002515	    0.019248	    0.018999	   -0.007330	    0.011669	    0.022946	    0.001266	    0.024212	    0.018100	   -0.023903	   -0.005804	   -0.012081	   -0.037019	   -0.049101	    0.037315	   -0.000377	    0.036938	    0.014562	   -0.006501	    0.008061	    0.021307	   -0.003763	    0.017544	    0.018228	   -0.003263	    0.014965	    0.023936	   -0.008510	    0.015426	    0.029636	   -0.003929	    0.025707	    0.022453	   -0.038006	   -0.015553	   -0.002728	   -0.038377	   -0.041105	    0.037322	   -0.007995	    0.029327	    0.030775	   -0.014572	    0.016202	    0.023243	   -0.001630	    0.021613	    0.027091	   -0.012858	    0.014233	    0.035212	   -0.001055	    0.034157	    0.002235	   -0.031069	   -0.028834
     5.700	0	0	    0	    0.026297	   -0.025687	    0.000610	    0.020451	   -0.003526	    0.016925	    0.013090	   -0.004525	    0.008565	    0.020970	   -0.002470	    0.018500	    0.018014	   -0.007185	    0.010829	    0.026416	   -0.002832	    0.023584	    0.019604	   -0.027456	   -0.007852	   -0.015575	   -0.035838	   -0.051413	    0.034289	    0.001580	    0.035869	    0.013514	   -0.006965	    0.006548	    0.020529	   -0.003904	    0.016625	    0.016690	   -0.003117	    0.013573	    0.022945	   -0.008491	    0.014455	    0.026102	   -0.003564	    0.022538	    0.019812	   -0.037561	   -0.017749	   -0.004077	   -0.038163	   -0.042240	    0.035307	   -0.007987	    0.027321	    0.029711	   -0.015401	    0.014310	    0.021728	   -0.001078	    0.020650	    0.025278	   -0.012749	    0.012528	    0.033406	   -0.001596	    0.031809	   -0.002030	   -0.028546	   -0.030576
     5.775	0	0	    0	    0.018349	   -0.021852	   -0.003503	    0.018326	   -0.002571	    0.015755	    0.012608	   -0.006058	    0.006550	    0.019777	   -0.001923	    0.017855	    0.017003	   -0.007076	    0.009927	    0.025845	   -0.003318	    0.022526	    0.021235	   -0.028343	   -0.007108	   -0.017381	   -0.035633	   -0.053014	    0.032466	    0.001061	    0.033527	    0.012248	   -0.007308	    0.004939	    0.019639	   -0.004180	    0.015458	    0.015520	   -0.003119	    0.012401	    0.020876	   -0.008182	    0.012693	    0.026583	   -0.005219	    0.021364	    0.022170	   -0.040726	   -0.018556	   -0.006234	   -0.037838	   -0.044072	    0.033091	   -0.008308	    0.024783	    0.028218	   -0.015825	    0.012393	    0.020837	   -0.001253	    0.019584	    0.023371	   -0.012908	    0.010463	    0.032870	   -0.002983	    0.029887	   -0.000108	   -0.029843	   -0.029950
     5.850	0	0	    0	    0.028242	   -0.027451	    0.000791	    0.017369	   -0.002994	    0.014374	    0.011673	   -0.006915	    0.004759	    0.019719	   -0.002988	    0.016731	    0.015826	   -0.007460	    0.008366	    0.023042	   -0.001593	    0.021450	    0.015326	   -0.024693	   -0.009366	   -0.015078	   -0.041062	   -0.056140	    0.031404	    0.001843	    0.033247	    0.010810	   -0.007301	    0.003509	    0.018179	   -0.003647	    0.014532	    0.014522	   -0.003210	    0.011312	    0.019676	   -0.008666	    0.011010	    0.028151	   -0.009790	    0.018361	    0.015707	   -0.038676	   -0.022969	   -0.008662	   -0.037576	   -0.046238	    0.031463	   -0.008139	    0.023324	    0.026363	   -0.015736	    0.010627	    0.020082	   -0.001215	    0.018868	    0.021661	   -0.012601	    0.009060	    0.028393	   -0.000681	    0.027713	   -0.006157	   -0.026105	   -0.032262
     5.925	0	0	    0	    0.024878	   -0.023196	    0.001682	    0.015634	   -0.002420	    0.013214	    0.010167	   -0.007229	    0.002938	    0.020191	   -0.003517	    0.016674	    0.016657	   -0.007499	    0.009158	    0.019844	    0.002070	    0.021915	    0.013091	   -0.019304	   -0.006212	   -0.014760	   -0.037105	   -0.051865	    0.027690	    0.003975	    0.031665	    0.009430	   -0.007719	    0.001711	    0.017730	   -0.004329	    0.013401	    0.014835	   -0.004019	    0.010816	    0.018635	   -0.008653	    0.009982	    0.021605	   -0.004954	    0.016652	    0.022157	   -0.042711	   -0.020555	   -0.011379	   -0.036999	   -0.048378	    0.029844	   -0.008934	    0.020910	    0.026373	   -0.016976	    0.009398	    0.019485	   -0.001625	    0.017861	    0.019570	   -0.012352	    0.007218	    0.026356	   -0.000229	    0.026127	   -0.001949	   -0.029347	   -0.031296
     6.000	0	0	    0	    0.026028	   -0.011934	    0.014095	    0.022594	   -0.005108	    0.017487	    0.018175	   -0.007184	    0.010991	    0.024746	   -0.002620	    0.022127	    0.017259	   -0.006075	    0.011184	    0.027788	   -0.007288	    0.020500	    0.026869	   -0.031540	   -0.004670	   -0.017175	   -0.029657	   -0.046831	    0.035781	   -0.002314	    0.033467	    0.014929	   -0.008566	    0.006363	    0.023626	   -0.004597	    0.019029	    0.018581	   -0.003474	    0.015108	    0.020855	   -0.009943	    0.010912	    0.027196	   -0.007522	    0.019674	    0.027822	   -0.041691	   -0.013869	   -0.005804	   -0.038834	   -0.044638	    0.036041	   -0.009730	    0.026311	    0.032664	   -0.016911	    0.015753	    0.024373	   -0.002057	    0.022316	    0.023969	   -0.013663	    0.010306	    0.033290	   -0.003636	    0.029655	    0.003195	   -0.028621	   -0.025426
     6.075	0	0	    0	    0.025821	   -0.013840	    0.011981	    0.023034	   -0.000428	    0.022606	    0.022295	   -0.005033	    0.017262	    0.025990	   -0.001741	    0.024249	    0.018326	   -0.005696	    0.012631	    0.024034	    0.001032	    0.025066	    0.014416	   -0.014795	   -0.000379	   -0.012527	   -0.033672	   -0.046199	    0.038577	   -0.000703	    0.037873	    0.017637	   -0.006623	    0.011015	    0.026037	   -0.003826	    0.022211	    0.020056	   -0.002865	    0.017192	    0.022825	   -0.008503	    0.014321	    0.027186	   -0.004579	    0.022608	    0.027895	   -0.041895	   -0.014000	   -0.005832	   -0.038109	   -0.043941	    0.040650	   -0.007365	    0.033285	    0.034980	   -0.016117	    0.018863	    0.026357	   -0.000621	    0.025736	    0.028007	   -0.012281	    0.015726	    0.035448	   -0.000317	    0.035131	    0.006017	   -0.027994	   -0.021977
     6.150	0	0	    0	    0.023525	   -0.013050	    0.010475	    0.026523	   -0.001759	    0.024764	    0.024962	   -0.005287	    0.019675	    0.025811	   -0.000481	    0.025330	    0.018691	   -0.006001	    0.012689	    0.028009	   -0.002754	    0.025255	    0.024413	   -0.026788	   -0.002375	   -0.015282	   -0.031813	   -0.047095	    0.041005	   -0.000337	    0.040669	    0.019888	   -0.006730	    0.013158	    0.027375	   -0.003958	    0.023416	    0.020836	   -0.002697	    0.018139	    0.024352	   -0.008841	    0.015511	    0.029113	   -0.003386	    0.025727	    0.025652	   -0.045912	   -0.020260	   -0.003840	   -0.039747	   -0.043587	    0.042369	   -0.006170	    0.036200	    0.036283	   -0.015612	    0.020671	    0.028025	   -0.001047	    0.026977	    0.029735	   -0.012065	    0.017670	    0.037253	    0.000350	    0.037603	    0.007941	   -0.027728	   -0.019788
     6.225	0	0	    0	    0.023596	   -0.008885	    0.014711	    0.025282	   -0.000179	    0.025103	    0.023423	   -0.005133	    0.018289	    0.026674	   -0.001962	    0.024712	    0.018842	   -0.006113	    0.012729	    0.027168	    0.000094	    0.027262	    0.024320	   -0.020903	    0.003418	   -0.015050	   -0.033495	   -0.048545	    0.042306	   -0.000022	    0.042284	    0.018830	   -0.006084	    0.012745	    0.026839	   -0.004310	    0.022528	    0.020324	   -0.002687	    0.017637	    0.024825	   -0.008610	    0.016216	    0.022216	   -0.001236	    0.020980	    0.032541	   -0.047860	   -0.015319	   -0.004976	   -0.039153	   -0.044128	    0.042170	   -0.006270	    0.035900	    0.035621	   -0.015979	    0.019642	    0.027485	   -0.000962	    0.026523	    0.028882	   -0.011354	    0.017528	    0.037838	   -0.000597	    0.037241	    0.011174	   -0.032647	   -0.021473
     6.300	0	0	    0	    0.021684	   -0.017041	    0.004643	    0.022986	    0.000812	    0.023798	    0.022075	   -0.004953	    0.017122	    0.025826	   -0.001281	    0.024545	    0.018338	   -0.005870	    0.012468	    0.022798	    0.002858	    0.025656	    0.014985	   -0.012972	    0.002013	   -0.014620	   -0.033352	   -0.047972	    0.038686	    0.001321	    0.040007	    0.017947	   -0.006082	    0.011866	    0.025999	   -0.004171	    0.021828	    0.020417	   -0.002727	    0.017690	    0.024653	   -0.009071	    0.015582	    0.016232	    0.005308	    0.021539	    0.024564	   -0.042097	   -0.017533	   -0.005411	   -0.039534	   -0.044945	    0.041962	   -0.006963	    0.034999	    0.035645	   -0.016288	    0.019357	    0.027466	   -0.001039	    0.026428	    0.028490	   -0.011833	    0.016658	    0.036894	    0.000007	    0.036901	    0.000072	   -0.023191	   -0.023119
     6.375	0	0	    0	    0.030450	   -0.016112	    0.014338	    0.024775	   -0.001092	    0.023684	    0.022490	   -0.006130	    0.016360	    0.027079	   -0.002603	    0.024476	    0.018425	   -0.005898	    0.012527	    0.027983	   -0.001822	    0.026161	    0.023832	   -0.024417	   -0.000585	   -0.014409	   -0.034538	   -0.048947	    0.039620	    0.001795	    0.041415	    0.018894	   -0.006919	    0.011975	    0.025697	   -0.003914	    0.021783	    0.019971	   -0.002470	    0.017501	    0.024013	   -0.008714	    0.015300	    0.026934	   -0.006239	    0.020694	    0.016041	   -0.038876	   -0.022835	   -0.006260	   -0.038303	   -0.044563	    0.041211	   -0.006484	    0.034727	    0.034558	   -0.015743	    0.018815	    0.027134	   -0.000887	    0.026247	    0.027869	   -0.012030	    0.015839	    0.036349	   -0.000137	    0.036211	   -0.001580	   -0.022270	   -0.023850
     6.450	0	0	    0	    0.019001	   -0.016460	    0.002541	    0.023801	   -0.001831	    0.021971	    0.019554	   -0.004235	    0.015319	    0.025485	   -0.001105	    0.024380	    0.016974	   -0.005637	    0.011337	    0.024897	    0.000282	    0.025179	    0.019354	   -0.017841	    0.001513	   -0.019102	   -0.035289	   -0.054392	    0.038094	    0.000593	    0.038688	    0.017606	   -0.006848	    0.010758	    0.024811	   -0.003956	    0.020855	    0.019250	   -0.002313	    0.016938	    0.024293	   -0.010069	    0.014224	    0.019054	   -0.002042	    0.017012	    0.017170	   -0.038917	   -0.021746	   -0.007097	   -0.040442	   -0.047539	    0.040183	   -0.007046	    0.033138	    0.033439	   -0.015901	    0.017538	    0.026419	   -0.000696	    0.025723	    0.027040	   -0.012047	    0.014993	    0.037247	   -0.002463	    0.034784	   -0.006321	   -0.020087	   -0.026408
     6.525	0	0	    0	    0.023098	   -0.013924	    0.009174	    0.021774	   -0.001225	    0.020549	    0.018789	   -0.005407	    0.013382	    0.024443	   -0.000834	    0.023608	    0.017605	   -0.006588	    0.011016	    0.023926	    0.001740	    0.025666	    0.021954	   -0.022117	   -0.000163	   -0.017870	   -0.033867	   -0.051736	    0.034712	    0.003035	    0.037746	    0.016550	   -0.006947	    0.009603	    0.024289	   -0.004502	    0.019787	    0.018322	   -0.002441	    0.015880	    0.022324	   -0.008606	    0.013718	    0.021504	   -0.006224	    0.015280	    0.021716	   -0.045389	   -0.023673	   -0.008431	   -0.039290	   -0.047721	    0.038305	   -0.006962	    0.031344	    0.032880	   -0.016929	    0.015951	    0.025581	   -0.000742	    0.024838	    0.025747	   -0.012035	    0.013712	    0.034194	   -0.000838	    0.033356	   -0.003908	   -0.022879	   -0.026787
     6.600	0	0	    0	    0.026444	   -0.021683	    0.004761	    0.020948	   -0.001950	    0.018998	    0.018301	   -0.007463	    0.010838	    0.023899	   -0.001546	    0.022354	    0.016347	   -0.006169	    0.010178	    0.024113	    0.001202	    0.025315	    0.028799	   -0.027597	    0.001202	   -0.019721	   -0.034733	   -0.054453	    0.037659	   -0.000742	    0.036917	    0.015148	   -0.007003	    0.008145	    0.023451	   -0.005025	    0.018426	    0.017611	   -0.002865	    0.014746	    0.022293	   -0.009931	    0.012362	    0.020026	   -0.006369	    0.013657	    0.018096	   -0.046644	   -0.028548	   -0.008798	   -0.041519	   -0.050318	    0.037010	   -0.007652	    0.029358	    0.031235	   -0.016876	    0.014359	    0.024969	   -0.001187	    0.023782	    0.024449	   -0.012462	    0.011987	    0.033797	   -0.002693	    0.031103	   -0.005714	   -0.027052	   -0.032766
     6.675	0	0	    0	    0.024650	   -0.025676	   -0.001026	    0.020203	   -0.003495	    0.016708	    0.015390	   -0.006222	    0.009168	    0.023108	   -0.002292	    0.020816	    0.015819	   -0.006365	    0.009453	    0.023869	   -0.001408	    0.022461	    0.017620	   -0.021342	   -0.003721	   -0.020214	   -0.035031	   -0.055244	    0.030560	    0.004158	    0.034719	    0.014239	   -0.007317	    0.006922	    0.022197	   -0.004827	    0.017370	    0.016370	   -0.002752	    0.013618	    0.020568	   -0.009228	    0.011339	    0.018425	   -0.006841	    0.011584	    0.018482	   -0.047543	   -0.029060	   -0.011593	   -0.040155	   -0.051747	    0.036061	   -0.008445	    0.027617	    0.030480	   -0.017291	    0.013189	    0.023667	   -0.001161	    0.022506	    0.023248	   -0.012524	    0.010724	    0.032493	   -0.002062	    0.030431	   -0.009184	   -0.025900	   -0.035084
     6.750	0	0	    0	    0.024067	   -0.023523	    0.000544	    0.018204	   -0.002866	    0.015338	    0.013967	   -0.007072	    0.006895	    0.022048	   -0.003192	    0.018856	    0.016108	   -0.007355	    0.008753	    0.024418	   -0.003003	    0.021415	    0.015553	   -0.021954	   -0.006401	   -0.022457	   -0.034017	   -0.056474	    0.035830	   -0.000930	    0.034900	    0.013379	   -0.007399	    0.005981	    0.020690	   -0.004649	    0.016041	    0.015425	   -0.003084	    0.012341	    0.020732	   -0.009548	    0.011184	    0.017399	   -0.004748	    0.012650	    0.019225	   -0.048983	   -0.029759	   -0.011902	   -0.041144	   -0.053046	    0.034028	   -0.007877	    0.026151	    0.030362	   -0.017656	    0.012706	    0.023019	   -0.001604	    0.021415	    0.021728	   -0.011784	    0.009945	    0.031789	   -0.002437	    0.029352	   -0.007511	   -0.027084	   -0.034595
     6.825	0	0	    0	    0.021396	   -0.017391	    0.004004	    0.017752	   -0.003011	    0.014741	    0.013498	   -0.007189	    0.006309	    0.024177	   -0.003318	    0.020859	    0.015959	   -0.005913	    0.010046	    0.022793	   -0.001351	    0.021442	    0.021833	   -0.028821	   -0.006988	   -0.017547	   -0.035876	   -0.053422	    0.032070	    0.000257	    0.032327	    0.013562	   -0.008130	    0.005432	    0.022206	   -0.006021	    0.016184	    0.017400	   -0.003849	    0.013551	    0.019653	   -0.009636	    0.010016	    0.019491	   -0.004904	    0.014586	    0.013579	   -0.043811	   -0.030232	   -0.013478	   -0.042502	   -0.055980	    0.033899	   -0.009120	    0.024779	    0.032285	   -0.018782	    0.013502	    0.023795	   -0.002225	    0.021570	    0.021495	   -0.012774	    0.008720	    0.031565	   -0.004301	    0.027265	   -0.009184	   -0.025900	   -0.035084
     6.900	0	0	    0	    0.026273	   -0.022170	    0.004103	    0.021551	   -0.001777	    0.019774	    0.021009	   -0.005108	    0.015901	    0.026525	   -0.002169	    0.024357	    0.017376	   -0.006610	    0.010766	    0.022509	   -0.003008	    0.019501	    0.014998	   -0.023865	   -0.008866	   -0.015885	   -0.034292	   -0.050176	    0.041702	   -0.005636	    0.036066	    0.018563	   -0.007483	    0.011080	    0.027450	   -0.005291	    0.022159	    0.019933	   -0.002940	    0.016994	    0.022236	   -0.010630	    0.011606	    0.020389	    0.000708	    0.021097	    0.018860	   -0.046144	   -0.027284	   -0.007221	   -0.044234	   -0.051455	    0.041868	   -0.008483	    0.033386	    0.038367	   -0.017785	    0.020582	    0.028678	   -0.002010	    0.026668	    0.026930	   -0.011964	    0.014966	    0.036064	   -0.001759	    0.034304	    0.000002	   -0.025256	   -0.025254
     6.975	0	0	    0	    0.026063	   -0.015545	    0.010518	    0.022327	    0.000832	    0.023159	    0.023190	   -0.003577	    0.019612	    0.027020	   -0.001436	    0.025584	    0.017596	   -0.005482	    0.012114	    0.019427	    0.004087	    0.023514	    0.008206	   -0.009690	   -0.001485	   -0.016124	   -0.030054	   -0.046178	    0.042788	   -0.001542	    0.041245	    0.020720	   -0.006364	    0.014357	    0.028659	   -0.004642	    0.024018	    0.021000	   -0.002479	    0.018521	    0.023061	   -0.009404	    0.013657	    0.018127	    0.003526	    0.021653	    0.021383	   -0.043219	   -0.021836	   -0.005917	   -0.042226	   -0.048143	    0.044621	   -0.006575	    0.038046	    0.040393	   -0.016498	    0.023895	    0.030217	   -0.001265	    0.028952	    0.029574	   -0.011008	    0.018566	    0.037852	   -0.001028	    0.036824	    0.003524	   -0.030046	   -0.026521
     7.050	0	0	    0	    0.022190	   -0.012063	    0.010127	    0.025662	   -0.001570	    0.024091	    0.024088	   -0.003065	    0.021023	    0.026718	   -0.001054	    0.025664	    0.018438	   -0.006078	    0.012360	    0.024774	   -0.001053	    0.023721	    0.019488	   -0.021609	   -0.002122	   -0.017097	   -0.029520	   -0.046617	    0.045081	   -0.000565	    0.044516	    0.022151	   -0.006363	    0.015787	    0.028818	   -0.004136	    0.024682	    0.021365	   -0.002401	    0.018964	    0.025225	   -0.010360	    0.014865	    0.024647	   -0.002539	    0.022108	    0.023081	   -0.044185	   -0.021104	   -0.005314	   -0.042069	   -0.047383	    0.046652	   -0.006275	    0.040377	    0.040730	   -0.015651	    0.025080	    0.031075	   -0.001089	    0.029986	    0.030935	   -0.009944	    0.020990	    0.039392	   -0.001220	    0.038172	   -0.000617	   -0.024486	   -0.025102
     7.125	0	0	    0	    0.024530	   -0.016452	    0.008078	    0.025273	   -0.001518	    0.023755	    0.023306	   -0.004657	    0.018649	    0.027217	   -0.002525	    0.024692	    0.018278	   -0.006338	    0.011940	    0.027379	   -0.004336	    0.023043	    0.016712	   -0.026419	   -0.009707	   -0.015476	   -0.033649	   -0.049125	    0.040243	    0.004060	    0.044303	    0.021583	   -0.006709	    0.014874	    0.027829	   -0.004371	    0.023458	    0.020967	   -0.002570	    0.018397	    0.024155	   -0.009871	    0.014283	    0.026499	   -0.003474	    0.023025	    0.011058	   -0.040156	   -0.029098	   -0.008613	   -0.040288	   -0.048901	    0.045410	   -0.006089	    0.039320	    0.040226	   -0.016105	    0.024121	    0.030450	   -0.001037	    0.029413	    0.030118	   -0.009661	    0.020457	    0.038632	   -0.001452	    0.037180	   -0.000726	   -0.026773	   -0.027499
     7.200	0	0	    0	    0.026553	   -0.023213	    0.003340	    0.024439	   -0.002590	    0.021848	    0.023306	   -0.004468	    0.018838	    0.026549	   -0.001870	    0.024679	    0.018392	   -0.006324	    0.012068	    0.024359	   -0.001145	    0.023214	    0.018913	   -0.023524	   -0.004611	   -0.015115	   -0.034109	   -0.049223	    0.042851	   -0.000588	    0.042263	    0.021336	   -0.006833	    0.014503	    0.027782	   -0.004443	    0.023339	    0.020976	   -0.002447	    0.018529	    0.023793	   -0.009503	    0.014289	    0.025604	   -0.002922	    0.022682	    0.016029	   -0.042490	   -0.026460	   -0.007817	   -0.040826	   -0.048644	    0.045392	   -0.006390	    0.039001	    0.040204	   -0.016446	    0.023758	    0.030731	   -0.001050	    0.029681	    0.029947	   -0.009996	    0.019951	    0.038428	   -0.001438	    0.036990	   -0.004738	   -0.023067	   -0.027805
     7.275	0	0	    0	    0.017039	   -0.014669	    0.002369	    0.024984	   -0.002567	    0.022417	    0.022910	   -0.005168	    0.017742	    0.025733	   -0.001421	    0.024312	    0.018077	   -0.006323	    0.011754	    0.028397	   -0.004690	    0.023707	    0.022408	   -0.026812	   -0.004404	   -0.016522	   -0.033261	   -0.049783	    0.043360	   -0.001354	    0.042006	    0.020745	   -0.006596	    0.014149	    0.027679	   -0.005000	    0.022679	    0.020328	   -0.002380	    0.017948	    0.024154	   -0.010277	    0.013878	    0.025921	   -0.005064	    0.020857	    0.021119	   -0.048540	   -0.027421	   -0.007099	   -0.041332	   -0.048430	    0.045263	   -0.006940	    0.038323	    0.039314	   -0.016931	    0.022383	    0.031005	   -0.001265	    0.029741	    0.029984	   -0.011025	    0.018959	    0.039519	   -0.003551	    0.035968	   -0.004812	   -0.025874	   -0.030685
     7.350	0	0	    0	    0.027423	   -0.020105	    0.007318	    0.026000	   -0.003356	    0.022644	    0.021866	   -0.005623	    0.016243	    0.026390	   -0.001676	    0.024713	    0.017249	   -0.005908	    0.011342	    0.024572	   -0.002607	    0.021965	    0.024089	   -0.033573	   -0.009484	   -0.016597	   -0.035938	   -0.052535	    0.041653	    0.002017	    0.043670	    0.020399	   -0.007204	    0.013195	    0.026283	   -0.005142	    0.021141	    0.019610	   -0.002442	    0.017169	    0.022951	   -0.009452	    0.013499	    0.024355	   -0.003362	    0.020993	    0.023026	   -0.048098	   -0.025072	   -0.009236	   -0.040909	   -0.050145	    0.044108	   -0.006683	    0.037424	    0.037639	   -0.016869	    0.020770	    0.030875	   -0.000751	    0.030124	    0.028171	   -0.010298	    0.017873	    0.036809	   -0.000429	    0.036379	   -0.005003	   -0.025542	   -0.030545
     7.425	0	0	    0	    0.028675	   -0.019564	    0.009111	    0.025164	   -0.003107	    0.022057	    0.021448	   -0.006395	    0.015053	    0.025974	   -0.001603	    0.024371	    0.017146	   -0.006089	    0.011057	    0.027190	   -0.006740	    0.020449	    0.024345	   -0.032750	   -0.008405	   -0.021895	   -0.031075	   -0.052969	    0.038780	    0.003917	    0.042697	    0.019387	   -0.007528	    0.011859	    0.025389	   -0.005295	    0.020094	    0.018716	   -0.002538	    0.016178	    0.021228	   -0.009182	    0.012046	    0.022021	   -0.003805	    0.018217	    0.011256	   -0.038736	   -0.027481	   -0.010856	   -0.040720	   -0.051576	    0.042049	   -0.006074	    0.035975	    0.036282	   -0.017513	    0.018769	    0.029485	   -0.000539	    0.028946	    0.025946	   -0.010370	    0.015576	    0.036711	   -0.002196	    0.034515	   -0.010847	   -0.023436	   -0.034283
     7.500	0	0	    0	    0.019384	   -0.011336	    0.008047	    0.022845	   -0.002227	    0.020618	    0.018373	   -0.005240	    0.013133	    0.024104	   -0.001098	    0.023006	    0.014714	   -0.004730	    0.009984	    0.022066	   -0.002117	    0.019949	    0.013486	   -0.024304	   -0.010818	   -0.023678	   -0.031323	   -0.055002	    0.041696	   -0.001399	    0.040296	    0.017745	   -0.007504	    0.010242	    0.024337	   -0.004888	    0.019448	    0.017356	   -0.002483	    0.014873	    0.021330	   -0.010552	    0.010778	    0.021940	   -0.002010	    0.019930	    0.014919	   -0.046515	   -0.031596	   -0.009910	   -0.044538	   -0.054448	    0.040974	   -0.007415	    0.033559	    0.035312	   -0.018005	    0.017308	    0.027950	   -0.000626	    0.027324	    0.024695	   -0.011069	    0.013626	    0.033792	   -0.000198	    0.033594	   -0.010311	   -0.025189	   -0.035499
     7.575	0	0	    0	    0.027711	   -0.030250	   -0.002538	    0.021359	   -0.002926	    0.018433	    0.016560	   -0.005783	    0.010777	    0.024991	   -0.003065	    0.021926	    0.015306	   -0.006881	    0.008425	    0.020468	   -0.001334	    0.019134	    0.016141	   -0.028297	   -0.012156	   -0.020050	   -0.037288	   -0.057338	    0.036638	    0.001222	    0.037860	    0.016323	   -0.007519	    0.008804	    0.023282	   -0.005166	    0.018116	    0.016257	   -0.002740	    0.013517	    0.019718	   -0.010181	    0.009537	    0.020116	   -0.000069	    0.020047	    0.011827	   -0.045525	   -0.033698	   -0.013591	   -0.041660	   -0.055252	    0.038993	   -0.008055	    0.030939	    0.033623	   -0.018303	    0.015320	    0.026819	   -0.000741	    0.026078	    0.023177	   -0.011298	    0.011879	    0.032649	   -0.001352	    0.031297	   -0.013556	   -0.024386	   -0.037942
     7.650	0	0	    0	    0.025531	   -0.028865	   -0.003334	    0.020735	   -0.003158	    0.017576	    0.014297	   -0.005531	    0.008766	    0.022532	   -0.002463	    0.020069	    0.014095	   -0.006596	    0.007499	    0.022747	   -0.005321	    0.017426	    0.011561	   -0.026585	   -0.015024	   -0.023036	   -0.036461	   -0.059497	    0.037824	   -0.001248	    0.036576	    0.015099	   -0.007754	    0.007344	    0.022038	   -0.005030	    0.017009	    0.015238	   -0.002882	    0.012356	    0.018762	   -0.010374	    0.008388	    0.020958	   -0.002747	    0.018211	    0.007145	   -0.043779	   -0.036634	   -0.014184	   -0.042006	   -0.056190	    0.036605	   -0.007410	    0.029195	    0.032272	   -0.018296	    0.013976	    0.025466	   -0.000526	    0.024940	    0.021636	   -0.011092	    0.010544	    0.030882	   -0.000948	    0.029935	   -0.015350	   -0.025190	   -0.040540
     7.725	0	0	    0	    0.033020	   -0.030703	    0.002317	    0.017979	   -0.002449	    0.015530	    0.012871	   -0.006794	    0.006077	    0.024053	   -0.003226	    0.020826	    0.015406	   -0.008021	    0.007385	    0.018677	   -0.004056	    0.014621	    0.008080	   -0.029703	   -0.021623	   -0.017792	   -0.038776	   -0.056568	    0.035983	   -0.001428	    0.034555	    0.014666	   -0.008351	    0.006315	    0.022366	   -0.005742	    0.016624	    0.016228	   -0.003649	    0.012579	    0.017593	   -0.010570	    0.007023	    0.013709	    0.000991	    0.014700	    0.008490	   -0.046652	   -0.038162	   -0.015179	   -0.043236	   -0.058415	    0.035660	   -0.008691	    0.026969	    0.033351	   -0.019641	    0.013710	    0.025608	   -0.001397	    0.024211	    0.020813	   -0.011873	    0.008940	    0.030855	   -0.003843	    0.027012	   -0.010529	   -0.029919	   -0.040448
     7.800	0	0	    0	    0.031278	   -0.020015	    0.011263	    0.024728	   -0.002862	    0.021865	    0.023776	   -0.007185	    0.016592	    0.028277	   -0.001791	    0.026486	    0.017023	   -0.006874	    0.010148	    0.023673	   -0.005892	    0.017781	    0.013495	   -0.026420	   -0.012925	   -0.017345	   -0.034071	   -0.051416	    0.037033	    0.001597	    0.038630	    0.020870	   -0.008549	    0.012321	    0.028067	   -0.004819	    0.023248	    0.020145	   -0.002981	    0.017165	    0.019604	   -0.010742	    0.008861	    0.021825	   -0.001330	    0.020496	    0.013320	   -0.044515	   -0.031194	   -0.011920	   -0.041701	   -0.053621	    0.042794	   -0.007780	    0.035014	    0.040434	   -0.018397	    0.022036	    0.030914	   -0.001346	    0.029568	    0.025394	   -0.011256	    0.014138	    0.034364	   -0.000606	    0.033758	   -0.008144	   -0.025810	   -0.033954
     7.875	0	0	    0	    0.031351	   -0.017974	    0.013377	    0.028685	   -0.002143	    0.026542	    0.027440	   -0.004896	    0.022545	    0.029799	   -0.001499	    0.028301	    0.018491	   -0.007475	    0.011016	    0.024472	   -0.004850	    0.019622	    0.013032	   -0.023900	   -0.010868	   -0.017420	   -0.032129	   -0.049549	    0.043312	    0.001521	    0.044832	    0.023762	   -0.006849	    0.016912	    0.031109	   -0.004334	    0.026775	    0.021897	   -0.002396	    0.019501	    0.022508	   -0.011019	    0.011489	    0.023459	    0.002275	    0.025734	    0.015082	   -0.044754	   -0.029672	   -0.008507	   -0.042499	   -0.051006	    0.048299	   -0.006608	    0.041691	    0.043575	   -0.017506	    0.026069	    0.033848	   -0.000569	    0.033280	    0.030164	   -0.010688	    0.019475	    0.040183	   -0.001543	    0.038641	   -0.005741	   -0.024736	   -0.030477
     7.950	0	0	    0	    0.033878	   -0.024021	    0.009857	    0.030261	   -0.000955	    0.029306	    0.029761	   -0.004496	    0.025265	    0.030561	   -0.001485	    0.029076	    0.019002	   -0.007342	    0.011660	    0.028402	   -0.008535	    0.019867	    0.021092	   -0.030858	   -0.009766	   -0.016842	   -0.033784	   -0.050626	    0.050074	   -0.002735	    0.047338	    0.026690	   -0.007290	    0.019400	    0.032158	   -0.003881	    0.028277	    0.022941	   -0.002151	    0.020790	    0.025182	   -0.011270	    0.013912	    0.030884	   -0.003596	    0.027288	    0.007295	   -0.038445	   -0.031151	   -0.006514	   -0.042722	   -0.049236	    0.051503	   -0.006016	    0.045487	    0.045527	   -0.016997	    0.028530	    0.035310	   -0.000035	    0.035275	    0.032651	   -0.010117	    0.022534	    0.043034	   -0.001349	    0.041685	   -0.009024	   -0.022627	   -0.031651
     8.025	0	0	    0	    0.027167	   -0.014835	    0.012332	    0.030561	   -0.000901	    0.029661	    0.027237	   -0.002838	    0.024399	    0.029443	   -0.001050	    0.028393	    0.017522	   -0.005231	    0.012291	    0.026727	   -0.004988	    0.021739	    0.017298	   -0.028761	   -0.011463	   -0.015113	   -0.034118	   -0.049231	    0.048340	    0.000671	    0.049011	    0.026347	   -0.006448	    0.019899	    0.031223	   -0.004054	    0.027168	    0.022336	   -0.001923	    0.020413	    0.025491	   -0.010313	    0.015178	    0.028752	   -0.000371	    0.028381	    0.016095	   -0.045501	   -0.029405	   -0.006266	   -0.041512	   -0.047778	    0.051616	   -0.005429	    0.046187	    0.045395	   -0.017062	    0.028333	    0.034854	    0.000118	    0.034972	    0.033034	   -0.009453	    0.023581	    0.043795	   -0.001532	    0.042262	   -0.012516	   -0.019669	   -0.032185
     8.100	0	0	    0	    0.040917	   -0.023591	    0.017325	    0.031958	   -0.003462	    0.028496	    0.027665	   -0.004752	    0.022913	    0.029231	   -0.000658	    0.028573	    0.018221	   -0.005333	    0.012888	    0.027325	   -0.005429	    0.021896	    0.018219	   -0.027843	   -0.009624	   -0.016529	   -0.032795	   -0.049324	    0.045767	    0.001783	    0.047550	    0.026671	   -0.007011	    0.019660	    0.031033	   -0.004696	    0.026337	    0.022431	   -0.001992	    0.020439	    0.025304	   -0.010302	    0.015002	    0.025553	   -0.000041	    0.025512	    0.019606	   -0.047591	   -0.027985	   -0.008422	   -0.040283	   -0.048706	    0.050957	   -0.005204	    0.045753	    0.046090	   -0.017620	    0.028470	    0.035170	   -0.000374	    0.034797	    0.032949	   -0.010333	    0.022616	    0.042166	   -0.000943	    0.041224	   -0.005396	   -0.027955	   -0.033351
     8.175	0	0	    0	    0.031726	   -0.019156	    0.012570	    0.032079	   -0.002550	    0.029529	    0.026688	   -0.004662	    0.022026	    0.029049	   -0.001074	    0.027975	    0.017534	   -0.005405	    0.012129	    0.026727	   -0.004988	    0.021739	    0.017524	   -0.025923	   -0.008399	   -0.015555	   -0.036334	   -0.051889	    0.045947	    0.001817	    0.047764	    0.026388	   -0.006865	    0.019523	    0.030691	   -0.004833	    0.025857	    0.021898	   -0.001933	    0.019965	    0.025264	   -0.010402	    0.014862	    0.023641	    0.004900	    0.028541	    0.010064	   -0.041384	   -0.031320	   -0.006674	   -0.042604	   -0.049278	    0.051785	   -0.006332	    0.045454	    0.045813	   -0.017767	    0.028045	    0.035184	   -0.000534	    0.034650	    0.033181	   -0.011049	    0.022132	    0.044469	   -0.003734	    0.040735	   -0.005525	   -0.027381	   -0.032906
     8.250	0	0	    0	    0.032701	   -0.018972	    0.013729	    0.030581	   -0.002485	    0.028095	    0.024930	   -0.003852	    0.021077	    0.029749	   -0.001700	    0.028049	    0.017567	   -0.005920	    0.011647	    0.025382	   -0.004449	    0.020933	    0.019133	   -0.028907	   -0.009774	   -0.018434	   -0.034763	   -0.053197	    0.048096	   -0.000775	    0.047322	    0.026335	   -0.007307	    0.019027	    0.029713	   -0.004542	    0.025171	    0.021356	   -0.001930	    0.019425	    0.025439	   -0.011309	    0.014130	    0.026001	   -0.002832	    0.023169	    0.006833	   -0.040226	   -0.033393	   -0.007175	   -0.042522	   -0.049698	    0.050937	   -0.006167	    0.044769	    0.044715	   -0.017563	    0.027151	    0.034448	   -0.000179	    0.034269	    0.032329	   -0.010792	    0.021537	    0.042431	   -0.002858	    0.039572	   -0.014002	   -0.023441	   -0.037443
     8.325	0	0	    0	    0.019411	   -0.003604	    0.015806	    0.027518	   -0.001008	    0.026510	    0.023039	   -0.003905	    0.019135	    0.028271	   -0.001657	    0.026614	    0.016387	   -0.004971	    0.011416	    0.028000	   -0.005700	    0.022300	    0.017068	   -0.025391	   -0.008322	   -0.023986	   -0.029803	   -0.053789	    0.044459	    0.002129	    0.046588	    0.024515	   -0.006960	    0.017555	    0.029213	   -0.005434	    0.023779	    0.020158	   -0.001821	    0.018337	    0.024832	   -0.011225	    0.013607	    0.026271	   -0.000077	    0.026195	    0.013680	   -0.047006	   -0.033325	   -0.009825	   -0.041169	   -0.050994	    0.049704	   -0.006844	    0.042860	    0.044030	   -0.018528	    0.025502	    0.033684	   -0.000260	    0.033424	    0.031457	   -0.010923	    0.020534	    0.041249	   -0.002269	    0.038980	   -0.012874	   -0.022871	   -0.035744
     8.400	0	0	    0	    0.019756	   -0.011117	    0.008640	    0.027332	   -0.003076	    0.024256	    0.021970	   -0.005947	    0.016023	    0.024828	    0.000163	    0.024990	    0.014394	   -0.004566	    0.009828	    0.024111	   -0.006720	    0.017391	    0.018060	   -0.034270	   -0.016210	   -0.022650	   -0.035366	   -0.058016	    0.044007	    0.000560	    0.044567	    0.023714	   -0.007277	    0.016437	    0.027286	   -0.005039	    0.022247	    0.019116	   -0.002221	    0.016895	    0.023995	   -0.011606	    0.012389	    0.022492	    0.002602	    0.025094	    0.004119	   -0.044567	   -0.040448	   -0.011559	   -0.040919	   -0.052479	    0.047989	   -0.006919	    0.041070	    0.043103	   -0.018485	    0.024618	    0.032193	    0.000025	    0.032218	    0.029889	   -0.010964	    0.018926	    0.039369	   -0.002657	    0.036712	   -0.016265	   -0.023548	   -0.039813
     8.475	0	0	    0	    0.024329	   -0.018996	    0.005333	    0.023292	   -0.000775	    0.022517	    0.019132	   -0.005987	    0.013145	    0.024258	   -0.001115	    0.023143	    0.014976	   -0.006154	    0.008822	    0.021049	   -0.003788	    0.017260	    0.011458	   -0.028980	   -0.017522	   -0.024766	   -0.033143	   -0.057909	    0.043917	   -0.001376	    0.042541	    0.022320	   -0.007227	    0.015093	    0.025644	   -0.004944	    0.020700	    0.017890	   -0.002417	    0.015473	    0.023049	   -0.011913	    0.011135	    0.021486	   -0.002269	    0.019217	    0.000960	   -0.045029	   -0.044069	   -0.011393	   -0.043137	   -0.054530	    0.046609	   -0.007666	    0.038943	    0.041558	   -0.018544	    0.023015	    0.031001	   -0.000273	    0.030728	    0.028730	   -0.011470	    0.017261	    0.038761	   -0.004613	    0.034148	   -0.016012	   -0.029715	   -0.045727
     8.550	0	0	    0	    0.029127	   -0.025777	    0.003350	    0.025106	   -0.004554	    0.020553	    0.017954	   -0.006391	    0.011563	    0.024666	   -0.002589	    0.022077	    0.014397	   -0.006435	    0.007963	    0.023853	   -0.006417	    0.017436	    0.015770	   -0.033352	   -0.017581	   -0.024572	   -0.035875	   -0.060446	    0.041846	   -0.002118	    0.039728	    0.021478	   -0.007969	    0.013509	    0.025254	   -0.005550	    0.019704	    0.016906	   -0.002646	    0.014260	    0.022962	   -0.012745	    0.010217	    0.024927	   -0.003784	    0.021143	    0.004873	   -0.047915	   -0.043041	   -0.013644	   -0.042806	   -0.056449	    0.045202	   -0.008099	    0.037104	    0.040496	   -0.018771	    0.021726	    0.030394	   -0.000690	    0.029704	    0.028150	   -0.012254	    0.015896	    0.037547	   -0.004551	    0.032996	   -0.018420	   -0.025721	   -0.044141
     8.625	0	0	    0	    0.026548	   -0.021811	    0.004737	    0.021233	   -0.001251	    0.019982	    0.015193	   -0.005542	    0.009651	    0.022500	   -0.002232	    0.020268	    0.014624	   -0.007340	    0.007283	    0.017393	   -0.002437	    0.014956	    0.007270	   -0.026273	   -0.019004	   -0.024771	   -0.039227	   -0.063998	    0.035454	    0.003700	    0.039155	    0.019899	   -0.007954	    0.011945	    0.023646	   -0.005164	    0.018482	    0.015546	   -0.002680	    0.012865	    0.020723	   -0.011245	    0.009478	    0.018687	   -0.001073	    0.017614	   -0.003590	   -0.042081	   -0.045671	   -0.015528	   -0.042765	   -0.058293	    0.043048	   -0.008016	    0.035032	    0.039031	   -0.018951	    0.020080	    0.029015	   -0.000621	    0.028394	    0.026163	   -0.011725	    0.014438	    0.034744	   -0.003968	    0.030777	   -0.024657	   -0.024224	   -0.048881
     8.700	0	0	    0	    0.029485	   -0.026926	    0.002558	    0.020157	   -0.002272	    0.017885	    0.012741	   -0.005739	    0.007001	    0.022698	   -0.003313	    0.019385	    0.013593	   -0.006737	    0.006856	    0.019009	   -0.004189	    0.014820	    0.008310	   -0.029114	   -0.020804	   -0.022753	   -0.039531	   -0.062284	    0.037364	    0.000909	    0.038273	    0.018296	   -0.008055	    0.010241	    0.022636	   -0.005793	    0.016843	    0.015163	   -0.003227	    0.011937	    0.020566	   -0.012021	    0.008546	    0.016508	    0.001889	    0.018397	   -0.002574	   -0.046313	   -0.048887	   -0.016921	   -0.042987	   -0.059908	    0.041340	   -0.008657	    0.032683	    0.038342	   -0.019762	    0.018580	    0.028149	   -0.001115	    0.027034	    0.024896	   -0.012200	    0.012696	    0.034525	   -0.005069	    0.029456	   -0.027272	   -0.025928	   -0.053199
     8.775	0	0	    0	    0.030988	   -0.027433	    0.003555	    0.023526	   -0.004177	    0.019349	    0.018526	   -0.008500	    0.010026	    0.026347	   -0.002978	    0.023369	    0.015023	   -0.006445	    0.008577	    0.020215	   -0.005972	    0.014243	    0.009083	   -0.028493	   -0.019410	   -0.023092	   -0.035031	   -0.058123	    0.043628	   -0.007331	    0.036297	    0.021793	   -0.009488	    0.012305	    0.027200	   -0.006703	    0.020497	    0.018854	   -0.003280	    0.015574	    0.021379	   -0.013182	    0.008196	    0.018429	    0.002322	    0.020751	    0.002217	   -0.047310	   -0.045093	   -0.012728	   -0.045935	   -0.058663	    0.045028	   -0.010538	    0.034490	    0.044275	   -0.020926	    0.023349	    0.031563	   -0.001767	    0.029796	    0.026978	   -0.013211	    0.013767	    0.035874	   -0.004303	    0.031571	   -0.021626	   -0.023171	   -0.044796
     8.850	0	0	    0	    0.019270	   -0.006260	    0.013010	    0.029309	   -0.003248	    0.026061	    0.025556	   -0.005844	    0.019712	    0.027092	   -0.000934	    0.026158	    0.015520	   -0.004815	    0.010705	    0.021611	   -0.003360	    0.018251	    0.014202	   -0.028458	   -0.014256	   -0.023544	   -0.032188	   -0.055732	    0.047742	   -0.003804	    0.043938	    0.026590	   -0.007666	    0.018924	    0.031833	   -0.005639	    0.026194	    0.020982	   -0.002132	    0.018849	    0.024539	   -0.012789	    0.011750	    0.023183	    0.001490	    0.024673	    0.007059	   -0.046411	   -0.039352	   -0.010640	   -0.043145	   -0.053785	    0.052020	   -0.007507	    0.044513	    0.048522	   -0.019131	    0.029391	    0.036053	   -0.000942	    0.035111	    0.032867	   -0.012110	    0.020757	    0.041998	   -0.004180	    0.037819	   -0.014427	   -0.025564	   -0.039991
     8.925	0	0	    0	    0.027985	   -0.016574	    0.011411	    0.030241	   -0.002018	    0.028223	    0.026892	   -0.003646	    0.023246	    0.029724	   -0.002044	    0.027680	    0.017080	   -0.006000	    0.011081	    0.026623	   -0.007168	    0.019455	    0.012576	   -0.025233	   -0.012657	   -0.020959	   -0.035677	   -0.056636	    0.048424	   -0.001465	    0.046959	    0.029068	   -0.007125	    0.021943	    0.033315	   -0.004892	    0.028423	    0.022461	   -0.002044	    0.020417	    0.026132	   -0.012059	    0.014074	    0.023091	    0.003319	    0.026411	    0.003341	   -0.044061	   -0.040720	   -0.009544	   -0.042881	   -0.052425	    0.054999	   -0.007038	    0.047961	    0.051650	   -0.019234	    0.032416	    0.037437	   -0.000115	    0.037322	    0.036374	   -0.011864	    0.024510	    0.044091	   -0.002801	    0.041291	   -0.017744	   -0.022952	   -0.040697
     9.000	0	0	    0	    0.024196	   -0.013208	    0.010988	    0.032788	   -0.002779	    0.030009	    0.027751	   -0.004172	    0.023579	    0.027298	   -0.000616	    0.026682	    0.016849	   -0.005478	    0.011371	    0.026263	   -0.003285	    0.022978	    0.018252	   -0.027980	   -0.009728	   -0.022457	   -0.034017	   -0.056474	    0.051901	   -0.003747	    0.048154	    0.029901	   -0.006752	    0.023149	    0.033087	   -0.004881	    0.028207	    0.021962	   -0.001654	    0.020309	    0.027258	   -0.011818	    0.015440	    0.027087	    0.001134	    0.028221	    0.002986	   -0.042247	   -0.039261	   -0.009895	   -0.042121	   -0.052016	    0.055924	   -0.005792	    0.050132	    0.051563	   -0.018493	    0.033070	    0.038007	   -0.000263	    0.037744	    0.037186	   -0.010671	    0.026515	    0.045958	   -0.003119	    0.042838	   -0.012860	   -0.025940	   -0.038800
     9.075	0	0	    0	    0.036074	   -0.021792	    0.014282	    0.027406	    0.001388	    0.028795	    0.026032	   -0.004036	    0.021996	    0.029517	   -0.001876	    0.027641	    0.018193	   -0.006316	    0.011877	    0.023042	   -0.001593	    0.021450	    0.014622	   -0.022760	   -0.008137	   -0.020141	   -0.034438	   -0.054579	    0.047043	    0.001121	    0.048164	    0.029409	   -0.006844	    0.022565	    0.032688	   -0.005158	    0.027530	    0.022155	   -0.002086	    0.020069	    0.027310	   -0.011778	    0.015532	    0.020832	    0.008359	    0.029190	    0.012199	   -0.050266	   -0.038067	   -0.010401	   -0.042178	   -0.052579	    0.055261	   -0.006339	    0.048921	    0.051943	   -0.019563	    0.032380	    0.037875	   -0.000849	    0.037026	    0.037153	   -0.011413	    0.025740	    0.045964	   -0.004393	    0.041572	   -0.011129	   -0.029172	   -0.040300
     9.150	0	0	    0	    0.038629	   -0.034287	    0.004341	    0.030077	   -0.002739	    0.027338	    0.025978	   -0.005859	    0.020119	    0.028931	   -0.003191	    0.025740	    0.018052	   -0.006372	    0.011680	    0.023485	   -0.002429	    0.021056	    0.013159	   -0.027571	   -0.014412	   -0.018876	   -0.039454	   -0.058330	    0.049119	   -0.002536	    0.046583	    0.029592	   -0.007191	    0.022401	    0.032485	   -0.005552	    0.026933	    0.021906	   -0.002272	    0.019634	    0.027881	   -0.012659	    0.015222	    0.022699	    0.003222	    0.025921	    0.003440	   -0.047340	   -0.043900	   -0.009538	   -0.043862	   -0.053400	    0.055466	   -0.006776	    0.048689	    0.051339	   -0.019392	    0.031948	    0.037334	   -0.000416	    0.036918	    0.037272	   -0.012047	    0.025225	    0.044399	   -0.002554	    0.041845	   -0.012608	   -0.029585	   -0.042193
     9.225	0	0	    0	    0.033497	   -0.026382	    0.007115	    0.029738	   -0.002549	    0.027190	    0.023295	   -0.004093	    0.019202	    0.028940	   -0.003985	    0.024954	    0.018574	   -0.006949	    0.011625	    0.025559	   -0.005030	    0.020528	    0.013731	   -0.027800	   -0.014069	   -0.019776	   -0.037861	   -0.057637	    0.048458	   -0.000818	    0.047639	    0.028791	   -0.007254	    0.021537	    0.031928	   -0.005974	    0.025954	    0.020988	   -0.002116	    0.018872	    0.027597	   -0.012088	    0.015509	    0.023413	    0.003129	    0.026542	    0.009034	   -0.051693	   -0.042659	   -0.011000	   -0.042522	   -0.053523	    0.055215	   -0.007280	    0.047935	    0.051142	   -0.020204	    0.030938	    0.037043	   -0.000883	    0.036160	    0.036963	   -0.012269	    0.024694	    0.044141	   -0.002274	    0.041866	   -0.015745	   -0.027811	   -0.043556
     9.300	0	0	    0	    0.015184	   -0.013022	    0.002163	    0.029357	   -0.004433	    0.024924	    0.022562	   -0.005748	    0.016814	    0.026133	   -0.001796	    0.024337	    0.015680	   -0.005093	    0.010586	    0.024935	   -0.006597	    0.018338	    0.014641	   -0.030944	   -0.016302	   -0.026825	   -0.033930	   -0.060755	    0.047593	   -0.002973	    0.044621	    0.027905	   -0.007523	    0.020382	    0.031113	   -0.006121	    0.024992	    0.020092	   -0.002336	    0.017756	    0.027379	   -0.012499	    0.014880	    0.023911	   -0.000584	    0.023327	    0.005361	   -0.050016	   -0.044655	   -0.012272	   -0.042893	   -0.055165	    0.053816	   -0.007516	    0.046299	    0.050306	   -0.020360	    0.029945	    0.036189	   -0.001013	    0.035176	    0.036267	   -0.012790	    0.023477	    0.044994	   -0.006037	    0.038957	   -0.022260	   -0.024432	   -0.046692
     9.375	0	0	    0	    0.024787	   -0.021681	    0.003106	    0.027636	   -0.003376	    0.024260	    0.021101	   -0.006256	    0.014845	    0.025675	   -0.002718	    0.022957	    0.015525	   -0.005366	    0.010159	    0.024917	   -0.005629	    0.019288	    0.018734	   -0.035919	   -0.017185	   -0.025535	   -0.038930	   -0.064465	    0.047555	   -0.003169	    0.044386	    0.026389	   -0.007473	    0.018915	    0.029688	   -0.006177	    0.023512	    0.019070	   -0.002483	    0.016587	    0.026784	   -0.012477	    0.014307	    0.021674	    0.000312	    0.021987	   -0.003018	   -0.046461	   -0.049479	   -0.013391	   -0.043514	   -0.056905	    0.052427	   -0.008397	    0.044029	    0.048504	   -0.020549	    0.027955	    0.035177	   -0.001062	    0.034115	    0.035446	   -0.013087	    0.022359	    0.042577	   -0.004592	    0.037985	   -0.028519	   -0.021420	   -0.049940
     9.450	0	0	    0	    0.029566	   -0.028429	    0.001136	    0.024422	   -0.002288	    0.022134	    0.019296	   -0.007090	    0.012206	    0.024778	   -0.003377	    0.021402	    0.016251	   -0.006911	    0.009340	    0.021382	   -0.003922	    0.017460	    0.004212	   -0.022056	   -0.017844	   -0.027533	   -0.036632	   -0.064165	    0.043195	   -0.000954	    0.042240	    0.025103	   -0.007802	    0.017300	    0.029007	   -0.006777	    0.022230	    0.017901	   -0.002619	    0.015282	    0.025808	   -0.012400	    0.013408	    0.023451	   -0.000844	    0.022607	   -0.000967	   -0.049112	   -0.050079	   -0.015387	   -0.042917	   -0.058304	    0.050141	   -0.008104	    0.042036	    0.047367	   -0.021211	    0.026156	    0.033901	   -0.001256	    0.032645	    0.033166	   -0.012674	    0.020492	    0.039968	   -0.003669	    0.036299	   -0.027828	   -0.024458	   -0.052286
     9.525	0	0	    0	    0.020075	   -0.016415	    0.003660	    0.024548	   -0.003638	    0.020909	    0.016535	   -0.005670	    0.010865	    0.022690	   -0.001519	    0.021172	    0.014668	   -0.005767	    0.008901	    0.021748	   -0.004921	    0.016827	    0.003339	   -0.024826	   -0.021487	   -0.031647	   -0.035220	   -0.066867	    0.042457	   -0.000634	    0.041823	    0.023996	   -0.008138	    0.015858	    0.027428	   -0.006139	    0.021290	    0.016942	   -0.002744	    0.014198	    0.025095	   -0.012938	    0.012156	    0.020121	   -0.000012	    0.020110	   -0.005902	   -0.045905	   -0.051806	   -0.016624	   -0.043253	   -0.059878	    0.048858	   -0.008751	    0.040107	    0.045937	   -0.021289	    0.024648	    0.032883	   -0.001402	    0.031482	    0.032540	   -0.013335	    0.019205	    0.039165	   -0.004367	    0.034798	   -0.026152	   -0.027123	   -0.053275
     9.600	0	0	    0	    0.022203	   -0.026731	   -0.004528	    0.023026	   -0.004715	    0.018311	    0.016147	   -0.008078	    0.008068	    0.021588	   -0.002229	    0.019359	    0.013593	   -0.005809	    0.007784	    0.021979	   -0.007327	    0.014652	    0.010000	   -0.035719	   -0.025719	   -0.030334	   -0.036663	   -0.066997	    0.040728	   -0.002505	    0.038223	    0.023097	   -0.008888	    0.014209	    0.025908	   -0.006222	    0.019686	    0.016213	   -0.003259	    0.012955	    0.024378	   -0.013304	    0.011074	    0.021392	   -0.000581	    0.020811	   -0.016432	   -0.042440	   -0.058871	   -0.018173	   -0.043544	   -0.061717	    0.047064	   -0.009057	    0.038007	    0.044001	   -0.020909	    0.023093	    0.031449	   -0.001411	    0.030038	    0.031240	   -0.013534	    0.017706	    0.038252	   -0.004894	    0.033359	   -0.032439	   -0.022118	   -0.054556
     9.675	0	0	    0	    0.021348	   -0.028393	   -0.007045	    0.022447	   -0.005804	    0.016643	    0.014449	   -0.008409	    0.006040	    0.021848	   -0.004029	    0.017819	    0.013593	   -0.006737	    0.006856	    0.021902	   -0.007494	    0.014408	    0.014790	   -0.040118	   -0.025328	   -0.030425	   -0.040318	   -0.070742	    0.041356	   -0.004944	    0.036412	    0.021371	   -0.008876	    0.012495	    0.025583	   -0.006991	    0.018593	    0.014952	   -0.003392	    0.011560	    0.023259	   -0.013255	    0.010004	    0.021782	   -0.005462	    0.016320	   -0.002913	   -0.054339	   -0.057252	   -0.017512	   -0.045623	   -0.063135	    0.045484	   -0.009833	    0.035651	    0.043558	   -0.022326	    0.021233	    0.030483	   -0.001985	    0.028498	    0.030092	   -0.014368	    0.015725	    0.037589	   -0.007179	    0.030410	   -0.031763	   -0.028335	   -0.060097
     9.750	0	0	    0	    0.014841	   -0.019477	   -0.004636	    0.020248	   -0.004046	    0.016202	    0.011339	   -0.006184	    0.005156	    0.020548	   -0.002830	    0.017718	    0.012444	   -0.006910	    0.005534	    0.015663	    0.000017	    0.015680	   -0.000358	   -0.022666	   -0.023023	   -0.033363	   -0.038586	   -0.071948	    0.038168	   -0.001939	    0.036229	    0.019540	   -0.008332	    0.011208	    0.024428	   -0.006787	    0.017640	    0.014039	   -0.003480	    0.010559	    0.021486	   -0.013512	    0.007975	    0.013829	    0.000314	    0.014143	   -0.007918	   -0.054692	   -0.062610	   -0.021721	   -0.043594	   -0.065315	    0.043356	   -0.009520	    0.033836	    0.041612	   -0.022193	    0.019419	    0.029415	   -0.002242	    0.027172	    0.028377	   -0.013939	    0.014438	    0.035134	   -0.007013	    0.028121	   -0.037112	   -0.027424	   -0.064536
     9.825	0	0	    0	    0.023704	   -0.025855	   -0.002151	    0.019190	   -0.005350	    0.013840	    0.008731	   -0.006856	    0.001875	    0.021205	   -0.004171	    0.017034	    0.012719	   -0.008108	    0.004611	    0.016983	   -0.004535	    0.012448	    0.002183	   -0.028852	   -0.026669	   -0.028884	   -0.041825	   -0.070709	    0.037583	   -0.002985	    0.034598	    0.018221	   -0.009033	    0.009187	    0.022789	   -0.006935	    0.015853	    0.014072	   -0.004216	    0.009856	    0.018994	   -0.012721	    0.006273	    0.015911	    0.000109	    0.016019	   -0.010885	   -0.051086	   -0.061971	   -0.023321	   -0.044087	   -0.067408	    0.041240	   -0.010017	    0.031223	    0.040674	   -0.022874	    0.017800	    0.028264	   -0.002415	    0.025849	    0.026683	   -0.014172	    0.012512	    0.032353	   -0.005914	    0.026439	   -0.031387	   -0.028977	   -0.060364
     9.900	0	0	    0	    0.033927	   -0.029043	    0.004883	    0.024978	   -0.006808	    0.018171	    0.019291	   -0.009760	    0.009531	    0.026432	   -0.003274	    0.023158	    0.014384	   -0.007583	    0.006801	    0.022234	   -0.007627	    0.014607	    0.015352	   -0.040344	   -0.024991	   -0.027418	   -0.037449	   -0.064867	    0.040980	   -0.004887	    0.036092	    0.023672	   -0.010085	    0.013587	    0.029002	   -0.007668	    0.021333	    0.018634	   -0.003921	    0.014712	    0.021383	   -0.015212	    0.006171	    0.020389	    0.000708	    0.021097	   -0.008050	   -0.048423	   -0.056474	   -0.018979	   -0.044612	   -0.063591	    0.048405	   -0.011270	    0.037136	    0.049228	   -0.023118	    0.026110	    0.033755	   -0.003108	    0.030647	    0.031224	   -0.015300	    0.015924	    0.039302	   -0.008095	    0.031208	   -0.027337	   -0.024404	   -0.051741
