 [File Information]      		 [Data Line]	36
Measured Date	2024/05/21 112943
ID		Version	11.0
Name	tristan_12	[HeaderType]	11.0/11.0
Comment	
[Measurement Info.]
Holder Location	       0
Block Design	Off     
Pre.Rest Time	       0
Task Time	       0
Pos.Rest Time	       0
Loop	       0
Averaging	       1
Total Points	     840
[.INF File]
Filename	Cognitive1.INF
[Condition-1]
HV Switching	OFF
 R1 ,R2 ,R3 ,R4 ,R5 ,R6 ,R7 ,R8 
 120.00, 70.00,120.00,100.00, 90.00, 70.00,120.00,120.00
 Gain(X1,X4,X16,X64)
 R1 ,R2 ,R3 ,R4 ,R5 ,R6 ,R7 ,R8 
 1,1,1,1,1,1,1,1
[Analysis Condition]
Smoothed Type	None            
Smoothed Points	       0
Smoothed Loop	       0
Baseline Method	None            
Baseline location	
[Text Info.]
Output Mode	Continious      	Task No.		Data Type	Hb      
Time Range	    0.00	   62.93	Averaing	1
(1,3)(5,3)(5,7)(2,7)(2,4)(6,4)(6,8)(1,1)(3,3)(5,5)(7,7)(2,2)(4,4)(6,6)(8,8)(3,1)(3,5)(7,5)(7,2)(4,2)(4,6)(8,6)
         	     	     	     	    ch- 1	    ch- 1	    ch- 1	    ch- 2	    ch- 2	    ch- 2	    ch- 3	    ch- 3	    ch- 3	    ch- 4	    ch- 4	    ch- 4	    ch- 5	    ch- 5	    ch- 5	    ch- 6	    ch- 6	    ch- 6	    ch- 7	    ch- 7	    ch- 7	    ch- 8	    ch- 8	    ch- 8	    ch- 9	    ch- 9	    ch- 9	    ch-10	    ch-10	    ch-10	    ch-11	    ch-11	    ch-11	    ch-12	    ch-12	    ch-12	    ch-13	    ch-13	    ch-13	    ch-14	    ch-14	    ch-14	    ch-15	    ch-15	    ch-15	    ch-16	    ch-16	    ch-16	    ch-17	    ch-17	    ch-17	    ch-18	    ch-18	    ch-18	    ch-19	    ch-19	    ch-19	    ch-20	    ch-20	    ch-20	    ch-21	    ch-21	    ch-21	    ch-22	    ch-22	    ch-22
Time(sec)	Task	Mark	Count	    oxyHb   	  deoxyHb	  totalHb	    oxyHb   	  deoxyHb	  totalHb	    oxyHb   	  deoxyHb	  totalHb	    oxyHb   	  deoxyHb	  totalHb	    oxyHb   	  deoxyHb	  totalHb	    oxyHb   	  deoxyHb	  totalHb	    oxyHb   	  deoxyHb	  totalHb	    oxyHb   	  deoxyHb	  totalHb	    oxyHb   	  deoxyHb	  totalHb	    oxyHb   	  deoxyHb	  totalHb	    oxyHb   	  deoxyHb	  totalHb	    oxyHb   	  deoxyHb	  totalHb	    oxyHb   	  deoxyHb	  totalHb	    oxyHb   	  deoxyHb	  totalHb	    oxyHb   	  deoxyHb	  totalHb	    oxyHb   	  deoxyHb	  totalHb	    oxyHb   	  deoxyHb	  totalHb	    oxyHb   	  deoxyHb	  totalHb	    oxyHb   	  deoxyHb	  totalHb	    oxyHb   	  deoxyHb	  totalHb	    oxyHb   	  deoxyHb	  totalHb	    oxyHb   	  deoxyHb	  totalHb
     0.000	0	0Z	    0	    0.000000	    0.000000	    0.000000	    0.000000	    0.000000	    0.000000	    0.000000	    0.000000	    0.000000	    0.000000	    0.000000	    0.000000	    0.000000	    0.000000	    0.000000	    0.000000	    0.000000	    0.000000	    0.000000	    0.000000	    0.000000	    0.000000	    0.000000	    0.000000	    0.000000	    0.000000	    0.000000	    0.000000	    0.000000	    0.000000	    0.000000	    0.000000	    0.000000	    0.000000	    0.000000	    0.000000	    0.000000	    0.000000	    0.000000	    0.000000	    0.000000	    0.000000	    0.000000	    0.000000	    0.000000	    0.000000	    0.000000	    0.000000	    0.000000	    0.000000	    0.000000	    0.000000	    0.000000	    0.000000	    0.000000	    0.000000	    0.000000	    0.000000	    0.000000	    0.000000	    0.000000	    0.000000	    0.000000	    0.000000	    0.000000	    0.000000
     0.075	0	0	    0	    0.002110	   -0.002337	   -0.000227	   -0.000014	   -0.000662	   -0.000676	   -0.000005	    0.000506	    0.000502	    0.000392	    0.000535	    0.000928	    0.000566	    0.000142	    0.000709	    0.001057	   -0.000024	    0.001033	    0.004094	   -0.002491	    0.001603	    0.002330	    0.001245	    0.003575	    0.002199	   -0.001738	    0.000461	    0.000131	    0.000150	    0.000281	   -0.000230	    0.000247	    0.000017	    0.001564	   -0.001013	    0.000551	    0.000974	   -0.000835	    0.000139	    0.004669	   -0.003110	    0.001558	    0.002496	   -0.001519	    0.000978	    0.001787	    0.001099	    0.002886	    0.001017	   -0.000916	    0.000101	   -0.000464	   -0.000307	   -0.000771	   -0.001023	   -0.000006	   -0.001028	    0.000850	   -0.001395	   -0.000545	    0.000324	   -0.000297	    0.000027	    0.002561	   -0.001891	    0.000670
     0.150	0	0	    0	   -0.001272	   -0.000507	   -0.001779	   -0.002521	    0.000170	   -0.002351	   -0.000699	    0.000054	   -0.000645	   -0.001764	    0.001679	   -0.000085	   -0.000185	   -0.000074	   -0.000259	   -0.000597	   -0.000214	   -0.000810	    0.001482	   -0.001083	    0.000399	    0.000809	    0.004541	    0.005350	   -0.000976	    0.000547	   -0.000429	   -0.001724	    0.001062	   -0.000661	   -0.001121	    0.000193	   -0.000928	   -0.001567	    0.001375	   -0.000192	   -0.001366	   -0.000299	   -0.001665	    0.000116	   -0.003431	   -0.003316	    0.002493	   -0.001727	    0.000766	    0.001987	    0.002225	    0.004212	   -0.001338	    0.000205	   -0.001133	   -0.002989	   -0.000016	   -0.003005	   -0.003062	    0.000065	   -0.002996	   -0.001913	    0.000092	   -0.001820	   -0.002469	    0.000100	   -0.002369	    0.000390	   -0.000887	   -0.000497
     0.225	0	0	    0	   -0.001826	   -0.001249	   -0.003075	   -0.004125	   -0.000383	   -0.004508	   -0.002481	    0.000520	   -0.001961	   -0.002643	    0.001182	   -0.001461	   -0.001595	    0.000036	   -0.001559	   -0.002792	   -0.000578	   -0.003371	   -0.001758	   -0.002117	   -0.003874	    0.002300	    0.003324	    0.005625	   -0.001342	   -0.000482	   -0.001824	   -0.002446	    0.000526	   -0.001920	   -0.002591	    0.000098	   -0.002493	   -0.002537	    0.000869	   -0.001667	   -0.003658	   -0.001060	   -0.004717	   -0.003141	   -0.002872	   -0.006013	    0.002382	   -0.004078	   -0.001696	    0.002082	    0.002554	    0.004636	   -0.003764	    0.000625	   -0.003140	   -0.004533	   -0.000883	   -0.005415	   -0.005309	   -0.000575	   -0.005884	   -0.004451	   -0.001050	   -0.005500	   -0.004188	   -0.000604	   -0.004792	    0.002954	   -0.003772	   -0.000818
     0.300	0	0	    0	   -0.003505	   -0.002108	   -0.005613	   -0.006237	   -0.000471	   -0.006709	   -0.003011	   -0.000065	   -0.003076	   -0.003835	    0.001291	   -0.002544	   -0.003225	   -0.000785	   -0.004010	   -0.004978	   -0.001112	   -0.006090	   -0.004703	   -0.001855	   -0.006558	    0.001373	    0.003945	    0.005318	   -0.003972	   -0.000149	   -0.004121	   -0.003340	    0.000374	   -0.002966	   -0.003244	   -0.000061	   -0.003305	   -0.003783	   -0.000177	   -0.003960	   -0.006477	   -0.000976	   -0.007453	   -0.003716	   -0.004890	   -0.008606	    0.003064	   -0.006318	   -0.003254	    0.002420	    0.002195	    0.004615	   -0.004766	   -0.000262	   -0.005028	   -0.006721	   -0.001231	   -0.007952	   -0.007877	   -0.001559	   -0.009435	   -0.006985	   -0.001101	   -0.008086	   -0.007524	    0.000222	   -0.007302	    0.001370	   -0.001944	   -0.000573
     0.375	0	0	    0	   -0.004394	   -0.002899	   -0.007294	   -0.008460	   -0.000204	   -0.008663	   -0.003373	    0.000342	   -0.003031	   -0.004109	    0.000817	   -0.003292	   -0.004972	   -0.001046	   -0.006018	   -0.007887	   -0.001293	   -0.009180	   -0.008103	   -0.000751	   -0.008854	    0.001706	    0.003120	    0.004826	   -0.005258	   -0.000396	   -0.005654	   -0.003758	    0.000812	   -0.002947	    0.000027	    0.000687	    0.000714	   -0.004197	   -0.000444	   -0.004641	   -0.008348	   -0.002017	   -0.010365	   -0.007973	   -0.005602	   -0.013575	    0.002959	   -0.008540	   -0.005581	    0.003234	    0.002410	    0.005644	   -0.004165	   -0.002743	   -0.006908	   -0.009686	   -0.002273	   -0.011959	   -0.013364	   -0.003489	   -0.016854	   -0.009212	   -0.001346	   -0.010557	   -0.008810	   -0.000347	   -0.009157	    0.003137	   -0.004109	   -0.000972
     0.450	0	0	    0	   -0.008983	   -0.002486	   -0.011469	   -0.011769	   -0.001005	   -0.012774	   -0.003492	    0.000574	   -0.002919	   -0.004834	    0.001353	   -0.003481	   -0.008571	   -0.001446	   -0.010018	   -0.012088	   -0.001299	   -0.013386	   -0.010282	   -0.005272	   -0.015554	   -0.001778	    0.001855	    0.000076	   -0.010047	   -0.002945	   -0.012992	   -0.006262	    0.001201	   -0.005061	    0.002033	    0.003627	    0.005660	   -0.006283	    0.000742	   -0.005540	   -0.013644	   -0.001808	   -0.015452	   -0.015410	   -0.004350	   -0.019760	    0.002653	   -0.009849	   -0.007196	    0.003771	    0.003509	    0.007280	   -0.011154	   -0.000316	   -0.011470	   -0.008340	   -0.004472	   -0.012811	   -0.015901	   -0.008287	   -0.024188	   -0.011152	   -0.002924	   -0.014075	   -0.011600	   -0.002969	   -0.014569	    0.005695	   -0.006657	   -0.000962
     0.525	0	0	    0	   -0.003301	   -0.004608	   -0.007909	   -0.006400	   -0.002010	   -0.008410	    0.000303	    0.001651	    0.001954	   -0.002261	    0.000997	   -0.001264	   -0.007247	   -0.004007	   -0.011255	   -0.004422	   -0.002385	   -0.006806	    0.005286	   -0.004484	    0.000801	    0.000665	    0.002183	    0.002848	   -0.007101	   -0.005446	   -0.012547	    0.001282	    0.000265	    0.001547	    0.007513	    0.006193	    0.013706	   -0.001154	   -0.001802	   -0.002956	   -0.003400	   -0.005994	   -0.009393	    0.000259	   -0.007364	   -0.007105	    0.007038	   -0.005010	    0.002028	    0.009999	    0.005222	    0.015221	   -0.004584	   -0.006849	   -0.011433	   -0.000775	   -0.003129	   -0.003904	   -0.008291	   -0.008662	   -0.016953	   -0.000742	   -0.004012	   -0.004753	   -0.002446	   -0.007942	   -0.010388	    0.010388	   -0.001435	    0.008953
     0.600	0	0	    0	    0.000032	   -0.003889	   -0.003856	   -0.006108	   -0.001595	   -0.007703	    0.001957	    0.002408	    0.004365	    0.002161	    0.002761	    0.004922	   -0.002896	   -0.003285	   -0.006180	   -0.003944	   -0.001298	   -0.005242	    0.008702	   -0.004379	    0.004324	    0.003718	    0.006085	    0.009803	   -0.002657	   -0.004418	   -0.007075	    0.005519	    0.002731	    0.008249	    0.011951	    0.008190	    0.020141	    0.005741	    0.000787	    0.006528	    0.002015	   -0.001067	    0.000949	    0.006653	   -0.006235	    0.000419	    0.006444	    0.005371	    0.011815	    0.017683	    0.009250	    0.026934	   -0.000075	   -0.004633	   -0.004708	    0.000169	   -0.002580	   -0.002411	   -0.009028	   -0.009014	   -0.018042	    0.004714	   -0.001783	    0.002932	    0.000254	   -0.002598	   -0.002344	    0.017019	    0.003299	    0.020318
     0.675	0	0	    0	    0.001013	   -0.004136	   -0.003123	   -0.006075	   -0.002599	   -0.008675	    0.002268	    0.002335	    0.004603	    0.003550	    0.003601	    0.007151	   -0.002844	   -0.002845	   -0.005690	   -0.003081	   -0.002081	   -0.005162	    0.021471	   -0.002756	    0.018715	    0.004922	    0.009730	    0.014651	   -0.001284	   -0.003712	   -0.004996	    0.007494	    0.004526	    0.012020	    0.012058	    0.009772	    0.021830	    0.009507	    0.002875	    0.012382	    0.002111	    0.001265	    0.003376	    0.011129	   -0.007073	    0.004056	    0.012728	    0.019090	    0.031819	    0.028046	    0.014165	    0.042211	   -0.000174	   -0.002281	   -0.002456	    0.000633	   -0.002801	   -0.002168	   -0.010638	   -0.011416	   -0.022053	    0.005345	   -0.001738	    0.003607	    0.000957	   -0.002669	   -0.001712	    0.040071	    0.003353	    0.043424
     0.750	0	0	    0	    0.006361	   -0.001014	    0.005347	   -0.012253	   -0.003605	   -0.015858	   -0.000739	    0.001878	    0.001139	    0.004071	    0.005423	    0.009494	   -0.006004	   -0.002962	   -0.008966	   -0.006933	   -0.004381	   -0.011313	    0.050078	    0.005694	    0.055772	    0.008655	    0.014858	    0.023513	    0.003693	   -0.004321	   -0.000628	    0.004037	    0.005853	    0.009890	    0.011894	    0.009635	    0.021529	    0.007363	    0.006161	    0.013524	   -0.002865	   -0.000336	   -0.003202	    0.027218	   -0.002468	    0.024749	    0.062889	    0.041226	    0.104115	    0.092118	    0.036155	    0.128273	   -0.006282	   -0.004602	   -0.010885	    0.003295	   -0.003597	   -0.000302	   -0.012994	   -0.014783	   -0.027777	    0.008835	   -0.003105	    0.005730	   -0.003148	   -0.005414	   -0.008561	    0.101822	    0.045066	    0.146889
     0.825	0	0	    0	    0.016695	    0.008180	    0.024875	   -0.016336	   -0.006957	   -0.023294	   -0.002408	    0.000451	   -0.001957	    0.006641	    0.008506	    0.015148	   -0.008061	   -0.008074	   -0.016134	   -0.012039	   -0.008302	   -0.020341	    0.069863	    0.029683	    0.099546	    0.048369	    0.056093	    0.104462	    0.013893	    0.005063	    0.018956	    0.005650	    0.004185	    0.009835	    0.014099	    0.009081	    0.023180	    0.009675	    0.003340	    0.013016	   -0.009107	   -0.005321	   -0.014428	    0.038961	    0.021784	    0.060744	    0.115356	    0.108941	    0.224297	    0.144919	    0.108653	    0.253572	   -0.014034	   -0.011803	   -0.025837	    0.004331	   -0.002570	    0.001760	   -0.020617	   -0.018645	   -0.039262	    0.013091	    0.000316	    0.013407	   -0.015500	   -0.010579	   -0.026079	    0.148567	    0.099931	    0.248498
     0.900	0	0	    0	    0.022536	    0.021937	    0.044473	   -0.016502	   -0.011002	   -0.027505	   -0.001177	   -0.000998	   -0.002175	    0.008738	    0.012033	    0.020772	   -0.008184	   -0.010790	   -0.018975	   -0.012359	   -0.011888	   -0.024247	    0.085509	    0.042071	    0.127580	    0.073255	    0.095545	    0.168799	    0.017593	    0.006901	    0.024494	    0.010313	    0.004754	    0.015067	    0.015278	    0.010957	    0.026236	    0.013118	    0.003387	    0.016505	   -0.008324	   -0.010799	   -0.019123	    0.055276	    0.014611	    0.069886	    0.127540	    0.109338	    0.236877	    0.165146	    0.156996	    0.322142	   -0.014642	   -0.015646	   -0.030288	    0.001911	   -0.002274	   -0.000363	   -0.027725	   -0.023700	   -0.051425	    0.014563	   -0.000761	    0.013802	   -0.013135	   -0.019612	   -0.032748	    0.159680	    0.127312	    0.286993
     0.975	0	0	    0	    0.022444	    0.026229	    0.048673	   -0.019608	   -0.011628	   -0.031236	   -0.001893	   -0.000882	   -0.002775	    0.009055	    0.011680	    0.020736	   -0.009840	   -0.010446	   -0.020287	   -0.017164	   -0.011638	   -0.028803	    0.085700	    0.042468	    0.128168	    0.079422	    0.096330	    0.175752	    0.014907	    0.008397	    0.023304	    0.012468	    0.006683	    0.019150	    0.014596	    0.013311	    0.027907	    0.013623	    0.006033	    0.019656	   -0.010357	   -0.009683	   -0.020039	    0.051828	    0.018809	    0.070636	    0.124840	    0.114525	    0.239365	    0.172853	    0.171414	    0.344267	   -0.015890	   -0.014836	   -0.030725	   -0.000792	   -0.004085	   -0.004876	   -0.032531	   -0.029339	   -0.061870	    0.011920	   -0.001973	    0.009947	   -0.014844	   -0.016361	   -0.031205	    0.164936	    0.137208	    0.302145
     1.050	0	0	    0	    0.019356	    0.026606	    0.045962	   -0.023602	   -0.011816	   -0.035417	   -0.003803	   -0.000303	   -0.004106	    0.007359	    0.012092	    0.019450	   -0.012348	   -0.011001	   -0.023348	   -0.021399	   -0.012878	   -0.034277	    0.075640	    0.047764	    0.123404	    0.076973	    0.096552	    0.173525	    0.014013	    0.006076	    0.020089	    0.011516	    0.008520	    0.020036	    0.013265	    0.013526	    0.026791	    0.012552	    0.007387	    0.019940	   -0.012536	   -0.010398	   -0.022933	    0.046792	    0.014605	    0.061396	    0.115927	    0.116314	    0.232241	    0.173612	    0.176783	    0.350395	   -0.016264	   -0.016710	   -0.032974	   -0.003820	   -0.005184	   -0.009005	   -0.036268	   -0.030594	   -0.066862	    0.009731	   -0.004056	    0.005675	   -0.016308	   -0.017424	   -0.033732	    0.157219	    0.136753	    0.293972
     1.125	0	0	    0	    0.016876	    0.026256	    0.043132	   -0.026141	   -0.011472	   -0.037612	   -0.005756	   -0.000203	   -0.005959	    0.004965	    0.012314	    0.017279	   -0.014309	   -0.010898	   -0.025207	   -0.024617	   -0.012713	   -0.037330	    0.065689	    0.052515	    0.118203	    0.076995	    0.092700	    0.169695	    0.012853	    0.003601	    0.016454	    0.010480	    0.008919	    0.019399	    0.010589	    0.012709	    0.023299	    0.011428	    0.008294	    0.019722	   -0.014384	   -0.010619	   -0.025002	    0.038797	    0.019750	    0.058547	    0.113677	    0.113122	    0.226799	    0.172152	    0.174341	    0.346493	   -0.018284	   -0.015487	   -0.033771	   -0.005425	   -0.005974	   -0.011399	   -0.039551	   -0.032358	   -0.071909	    0.006456	   -0.004853	    0.001603	   -0.018343	   -0.020123	   -0.038466	    0.163007	    0.129682	    0.292689
     1.200	0	0	    0	    0.016018	    0.025343	    0.041361	   -0.026646	   -0.012662	   -0.039307	   -0.006118	   -0.001353	   -0.007471	    0.003809	    0.011695	    0.015504	   -0.015590	   -0.011996	   -0.027586	   -0.025635	   -0.014407	   -0.040042	    0.074358	    0.042797	    0.117155	    0.076544	    0.089849	    0.166393	    0.009579	    0.004626	    0.014205	    0.010201	    0.009255	    0.019456	    0.009468	    0.011839	    0.021307	    0.011793	    0.007237	    0.019030	   -0.016864	   -0.009817	   -0.026681	    0.043730	    0.014809	    0.058539	    0.114926	    0.109947	    0.224873	    0.171080	    0.175035	    0.346115	   -0.018110	   -0.016323	   -0.034432	   -0.007500	   -0.006232	   -0.013732	   -0.042131	   -0.033438	   -0.075569	    0.003972	   -0.004996	   -0.001024	   -0.022429	   -0.017003	   -0.039432	    0.163380	    0.130863	    0.294243
     1.275	0	0	    0	    0.013508	    0.026313	    0.039821	   -0.027613	   -0.013409	   -0.041022	   -0.007751	   -0.001171	   -0.008922	    0.002289	    0.011982	    0.014271	   -0.017504	   -0.012030	   -0.029534	   -0.029076	   -0.014402	   -0.043478	    0.063735	    0.049585	    0.113320	    0.075296	    0.090188	    0.165484	    0.008944	    0.004232	    0.013176	    0.008702	    0.009852	    0.018555	    0.007906	    0.011823	    0.019729	    0.010124	    0.008847	    0.018971	   -0.018710	   -0.010688	   -0.029399	    0.038211	    0.018597	    0.056809	    0.111226	    0.112407	    0.223634	    0.172749	    0.173906	    0.346655	   -0.019468	   -0.016511	   -0.035978	   -0.010397	   -0.006534	   -0.016931	   -0.045041	   -0.034100	   -0.079141	    0.000549	   -0.004540	   -0.003991	   -0.023260	   -0.017696	   -0.040956	    0.162991	    0.132119	    0.295110
     1.350	0	0	    0	    0.013507	    0.023835	    0.037342	   -0.027912	   -0.014220	   -0.042132	   -0.007555	   -0.002292	   -0.009848	    0.002175	    0.010762	    0.012937	   -0.018396	   -0.013202	   -0.031598	   -0.029312	   -0.016177	   -0.045489	    0.071167	    0.037934	    0.109101	    0.074197	    0.089277	    0.163474	    0.006059	    0.004580	    0.010639	    0.010506	    0.008604	    0.019110	    0.009165	    0.010465	    0.019629	    0.008585	    0.009162	    0.017747	   -0.021194	   -0.010929	   -0.032123	    0.038282	    0.016318	    0.054600	    0.110068	    0.108849	    0.218917	    0.171349	    0.174702	    0.346051	   -0.020562	   -0.014867	   -0.035429	   -0.007789	   -0.008117	   -0.015907	   -0.043328	   -0.036648	   -0.079976	   -0.001213	   -0.006725	   -0.007939	   -0.024639	   -0.017652	   -0.042291	    0.167685	    0.126104	    0.293790
     1.425	0	0	    0	    0.013952	    0.024518	    0.038469	   -0.022556	   -0.014143	   -0.036699	   -0.003582	   -0.002059	   -0.005641	    0.003188	    0.010514	    0.013702	   -0.016426	   -0.013126	   -0.029552	   -0.020787	   -0.016420	   -0.037207	    0.086988	    0.035693	    0.122681	    0.074247	    0.088637	    0.162884	    0.011655	    0.003407	    0.015062	    0.016824	    0.009372	    0.026196	    0.014000	    0.009927	    0.023928	    0.013862	    0.007958	    0.021820	   -0.008859	   -0.012304	   -0.021163	    0.046113	    0.018658	    0.064771	    0.115726	    0.107294	    0.223019	    0.174186	    0.172824	    0.347011	   -0.011546	   -0.016144	   -0.027689	   -0.000207	   -0.006463	   -0.006670	   -0.034601	   -0.034977	   -0.069577	    0.012671	   -0.007712	    0.004959	   -0.014504	   -0.018741	   -0.033245	    0.175191	    0.126181	    0.301372
     1.500	0	0	    0	    0.015772	    0.024694	    0.040466	   -0.021442	   -0.012669	   -0.034111	   -0.002296	   -0.000816	   -0.003112	    0.006583	    0.010900	    0.017483	   -0.011657	   -0.012360	   -0.024017	   -0.018623	   -0.014186	   -0.032810	    0.080015	    0.045070	    0.125085	    0.075698	    0.088374	    0.164072	    0.012100	    0.004499	    0.016600	    0.018969	    0.010177	    0.029146	    0.014873	    0.011580	    0.026454	    0.020615	    0.008756	    0.029371	   -0.004307	   -0.007954	   -0.012260	    0.049756	    0.016692	    0.066448	    0.115989	    0.106027	    0.222016	    0.175397	    0.174454	    0.349851	   -0.011300	   -0.010818	   -0.022117	    0.001662	   -0.005356	   -0.003695	   -0.032691	   -0.033671	   -0.066362	    0.017427	   -0.004327	    0.013100	   -0.009523	   -0.015925	   -0.025449	    0.168234	    0.134397	    0.302632
     1.575	0	0	    0	    0.017399	    0.023563	    0.040963	   -0.021604	   -0.012719	   -0.034323	   -0.001773	   -0.001135	   -0.002909	    0.008072	    0.010635	    0.018707	   -0.010734	   -0.011906	   -0.022641	   -0.018380	   -0.013648	   -0.032028	    0.082295	    0.044306	    0.126601	    0.077604	    0.085557	    0.163161	    0.012183	    0.003870	    0.016053	    0.019121	    0.010921	    0.030042	    0.017436	    0.011175	    0.028611	    0.022708	    0.010423	    0.033131	   -0.002718	   -0.008217	   -0.010935	    0.052055	    0.011048	    0.063103	    0.119322	    0.102055	    0.221377	    0.177277	    0.172679	    0.349955	   -0.007457	   -0.013311	   -0.020768	    0.001509	   -0.004795	   -0.003286	   -0.033397	   -0.033271	   -0.066667	    0.019313	   -0.003796	    0.015517	   -0.008732	   -0.016133	   -0.024866	    0.174772	    0.125875	    0.300647
     1.650	0	0	    0	    0.015995	    0.024492	    0.040487	   -0.021666	   -0.013151	   -0.034817	   -0.001117	   -0.001134	   -0.002251	    0.007131	    0.012431	    0.019562	   -0.011795	   -0.011725	   -0.023520	   -0.019024	   -0.013974	   -0.032998	    0.080258	    0.043346	    0.123604	    0.076176	    0.085193	    0.161369	    0.012111	    0.001698	    0.013809	    0.019653	    0.010716	    0.030368	    0.019335	    0.013524	    0.032858	    0.022867	    0.010576	    0.033443	   -0.004048	   -0.008085	   -0.012133	    0.046348	    0.016846	    0.063194	    0.115542	    0.103067	    0.218610	    0.177205	    0.172419	    0.349624	   -0.008457	   -0.013072	   -0.021529	    0.001397	   -0.005362	   -0.003965	   -0.033843	   -0.034466	   -0.068308	    0.020348	   -0.006169	    0.014179	   -0.008555	   -0.016086	   -0.024641	    0.172613	    0.128329	    0.300942
     1.725	0	0	    0	    0.016533	    0.023471	    0.040005	   -0.022432	   -0.013007	   -0.035439	   -0.001442	   -0.000519	   -0.001961	    0.008118	    0.011751	    0.019869	   -0.011369	   -0.013217	   -0.024586	   -0.019016	   -0.013558	   -0.032574	    0.078015	    0.046812	    0.124827	    0.074889	    0.085195	    0.160084	    0.009648	    0.003131	    0.012779	    0.019000	    0.011784	    0.030784	    0.019700	    0.013841	    0.033541	    0.024191	    0.010636	    0.034827	   -0.003253	   -0.008807	   -0.012060	    0.051097	    0.011229	    0.062326	    0.119273	    0.100110	    0.219383	    0.177499	    0.172019	    0.349518	   -0.008616	   -0.012274	   -0.020890	    0.001643	   -0.006120	   -0.004477	   -0.034606	   -0.034408	   -0.069013	    0.019715	   -0.003829	    0.015887	   -0.010400	   -0.012834	   -0.023234	    0.173264	    0.124787	    0.298051
     1.800	0	0	    0	    0.016230	    0.023057	    0.039287	   -0.023684	   -0.012943	   -0.036627	   -0.002595	   -0.000787	   -0.003381	    0.007372	    0.012168	    0.019539	   -0.012419	   -0.013028	   -0.025447	   -0.020199	   -0.014141	   -0.034339	    0.076665	    0.043019	    0.119684	    0.074509	    0.083561	    0.158070	    0.008101	    0.002557	    0.010659	    0.019819	    0.010553	    0.030372	    0.017021	    0.014499	    0.031520	    0.023364	    0.012599	    0.035963	   -0.004802	   -0.008501	   -0.013303	    0.045156	    0.013329	    0.058485	    0.112276	    0.103713	    0.215988	    0.176410	    0.171647	    0.348057	   -0.008887	   -0.012529	   -0.021416	   -0.001048	   -0.005590	   -0.006638	   -0.036017	   -0.034946	   -0.070962	    0.017835	   -0.002529	    0.015306	   -0.011085	   -0.013681	   -0.024765	    0.172145	    0.124517	    0.296662
     1.875	0	0	    0	    0.013940	    0.023552	    0.037492	   -0.024875	   -0.013072	   -0.037947	   -0.003639	   -0.002794	   -0.006433	    0.006394	    0.011194	    0.017588	   -0.013856	   -0.013906	   -0.027762	   -0.022424	   -0.014259	   -0.036683	    0.076662	    0.039578	    0.116239	    0.074909	    0.082637	    0.157546	    0.007893	    0.001166	    0.009059	    0.017373	    0.010911	    0.028284	    0.015691	    0.011173	    0.026864	    0.022289	    0.011812	    0.034101	   -0.008078	   -0.009087	   -0.017165	    0.046660	    0.010834	    0.057493	    0.116869	    0.097480	    0.214350	    0.176322	    0.170579	    0.346901	   -0.009583	   -0.013573	   -0.023155	   -0.003428	   -0.005935	   -0.009363	   -0.038108	   -0.035019	   -0.073128	    0.017076	   -0.004932	    0.012145	   -0.012443	   -0.014125	   -0.026568	    0.173246	    0.125043	    0.298289
     1.950	0	0	    0	    0.013953	    0.021936	    0.035889	   -0.026312	   -0.013654	   -0.039966	   -0.005606	   -0.003324	   -0.008930	    0.004983	    0.010692	    0.015675	   -0.014846	   -0.015347	   -0.030193	   -0.024140	   -0.014944	   -0.039084	    0.074589	    0.038063	    0.112652	    0.074391	    0.082896	    0.157288	    0.007087	   -0.000104	    0.006984	    0.015916	    0.009897	    0.025813	    0.012808	    0.010442	    0.023250	    0.021814	    0.010125	    0.031940	   -0.011204	   -0.009241	   -0.020444	    0.041933	    0.012297	    0.054229	    0.114102	    0.098093	    0.212195	    0.175492	    0.171480	    0.346972	   -0.013013	   -0.012890	   -0.025904	   -0.005498	   -0.007146	   -0.012644	   -0.040934	   -0.035588	   -0.076522	    0.012780	   -0.003917	    0.008862	   -0.014355	   -0.015383	   -0.029738	    0.171315	    0.123306	    0.294620
     2.025	0	0	    0	    0.012479	    0.020720	    0.033200	   -0.026651	   -0.015194	   -0.041845	   -0.007593	   -0.003257	   -0.010850	    0.002717	    0.011000	    0.013718	   -0.017360	   -0.015281	   -0.032641	   -0.025580	   -0.016506	   -0.042086	    0.076195	    0.035008	    0.111203	    0.074087	    0.080582	    0.154669	    0.004711	    0.000270	    0.004981	    0.015086	    0.008785	    0.023872	    0.010727	    0.009540	    0.020268	    0.018843	    0.011213	    0.030056	   -0.013522	   -0.009972	   -0.023494	    0.042653	    0.011805	    0.054459	    0.108567	    0.102235	    0.210802	    0.173870	    0.170684	    0.344554	   -0.013437	   -0.013945	   -0.027382	   -0.008389	   -0.007680	   -0.016069	   -0.043137	   -0.036330	   -0.079467	    0.010242	   -0.005144	    0.005098	   -0.017212	   -0.014758	   -0.031970	    0.169118	    0.124925	    0.294043
     2.100	0	0	    0	    0.009687	    0.023289	    0.032975	   -0.029308	   -0.013154	   -0.042462	   -0.008614	   -0.003840	   -0.012455	    0.003072	    0.008800	    0.011873	   -0.018804	   -0.016057	   -0.034861	   -0.027683	   -0.016661	   -0.044344	    0.067616	    0.042683	    0.110300	    0.073847	    0.080582	    0.154429	    0.002545	    0.001013	    0.003558	    0.013531	    0.008553	    0.022084	    0.009287	    0.008746	    0.018033	    0.017253	    0.011092	    0.028345	   -0.016572	   -0.010676	   -0.027248	    0.039947	    0.010985	    0.050932	    0.113083	    0.097045	    0.210128	    0.173468	    0.169172	    0.342640	   -0.015269	   -0.013825	   -0.029094	   -0.010212	   -0.008652	   -0.018863	   -0.044753	   -0.036803	   -0.081556	    0.006795	   -0.004599	    0.002197	   -0.019268	   -0.016039	   -0.035307	    0.165411	    0.123801	    0.289212
     2.175	0	0	    0	    0.009270	    0.021391	    0.030661	   -0.029347	   -0.015114	   -0.044461	   -0.008831	   -0.005686	   -0.014516	    0.001414	    0.008569	    0.009983	   -0.020034	   -0.016535	   -0.036569	   -0.029260	   -0.017895	   -0.047155	    0.074803	    0.033028	    0.107831	    0.071544	    0.082204	    0.153748	    0.001789	    0.000151	    0.001941	    0.012541	    0.008300	    0.020841	    0.008061	    0.007479	    0.015540	    0.016158	    0.009924	    0.026082	   -0.018972	   -0.011794	   -0.030766	    0.039752	    0.006231	    0.045983	    0.113414	    0.094346	    0.207760	    0.172076	    0.169901	    0.341977	   -0.016337	   -0.014260	   -0.030597	   -0.012616	   -0.009147	   -0.021762	   -0.046954	   -0.037443	   -0.084397	    0.005112	   -0.007275	   -0.002162	   -0.022783	   -0.015994	   -0.038777	    0.165657	    0.118018	    0.283675
     2.250	0	0	    0	    0.007547	    0.022353	    0.029900	   -0.029863	   -0.014967	   -0.044829	   -0.009835	   -0.005723	   -0.015558	   -0.000732	    0.008970	    0.008238	   -0.022290	   -0.016807	   -0.039097	   -0.030811	   -0.018257	   -0.049068	    0.070768	    0.035098	    0.105866	    0.071101	    0.080265	    0.151366	    0.000446	   -0.000448	   -0.000001	    0.012198	    0.007573	    0.019771	    0.008681	    0.006354	    0.015035	    0.013762	    0.009389	    0.023150	   -0.021377	   -0.013533	   -0.034909	    0.038298	    0.007354	    0.045652	    0.110579	    0.094197	    0.204776	    0.171070	    0.168363	    0.339433	   -0.017116	   -0.015086	   -0.032202	   -0.008618	   -0.010973	   -0.019592	   -0.043686	   -0.038737	   -0.082423	    0.003022	   -0.009426	   -0.006404	   -0.024168	   -0.016846	   -0.041014	    0.166009	    0.118469	    0.284477
     2.325	0	0	    0	    0.012683	    0.019421	    0.032104	   -0.025290	   -0.014435	   -0.039725	   -0.006325	   -0.006020	   -0.012345	    0.002101	    0.007136	    0.009237	   -0.018105	   -0.018298	   -0.036403	   -0.023289	   -0.017414	   -0.040703	    0.078244	    0.038565	    0.116809	    0.073944	    0.079230	    0.153174	    0.005417	   -0.001142	    0.004276	    0.018037	    0.007531	    0.025568	    0.009979	    0.006993	    0.016973	    0.020238	    0.007855	    0.028094	   -0.009513	   -0.013642	   -0.023155	    0.043915	    0.012431	    0.056346	    0.109492	    0.097672	    0.207164	    0.174350	    0.167417	    0.341768	   -0.010762	   -0.015267	   -0.026029	   -0.002666	   -0.008078	   -0.010744	   -0.035322	   -0.036157	   -0.071480	    0.015769	   -0.008782	    0.006988	   -0.012442	   -0.018028	   -0.030470	    0.168647	    0.120576	    0.289223
     2.400	0	0	    0	    0.011605	    0.022891	    0.034495	   -0.024603	   -0.013981	   -0.038584	   -0.006393	   -0.005609	   -0.012002	    0.003369	    0.008866	    0.012235	   -0.015603	   -0.016257	   -0.031860	   -0.022522	   -0.015477	   -0.037999	    0.082053	    0.037010	    0.119064	    0.073193	    0.080842	    0.154035	    0.006455	   -0.000387	    0.006069	    0.018711	    0.008205	    0.026917	    0.010274	    0.005290	    0.015564	    0.022715	    0.011574	    0.034288	   -0.006508	   -0.010204	   -0.016712	    0.046491	    0.011103	    0.057595	    0.112915	    0.097430	    0.210345	    0.176429	    0.167160	    0.343589	   -0.010660	   -0.011809	   -0.022469	   -0.000757	   -0.007720	   -0.008477	   -0.034424	   -0.033989	   -0.068413	    0.019738	   -0.005770	    0.013968	   -0.010309	   -0.015577	   -0.025886	    0.169002	    0.120434	    0.289435
     2.475	0	0	    0	    0.013126	    0.021191	    0.034317	   -0.025166	   -0.013710	   -0.038877	   -0.007040	   -0.006449	   -0.013489	    0.003829	    0.006403	    0.010232	   -0.014767	   -0.016224	   -0.030991	   -0.022984	   -0.015032	   -0.038016	    0.077195	    0.041345	    0.118540	    0.075776	    0.079802	    0.155578	    0.006721	   -0.001542	    0.005179	    0.017075	    0.008180	    0.025255	    0.007799	    0.004398	    0.012197	    0.024821	    0.009593	    0.034414	   -0.006045	   -0.010559	   -0.016605	    0.044749	    0.008618	    0.053367	    0.110840	    0.098901	    0.209742	    0.176870	    0.167538	    0.344409	   -0.010134	   -0.013009	   -0.023143	   -0.002311	   -0.007268	   -0.009579	   -0.035196	   -0.033839	   -0.069035	    0.019903	   -0.006386	    0.013517	   -0.010259	   -0.016017	   -0.026276	    0.166766	    0.118623	    0.285389
     2.550	0	0	    0	    0.012893	    0.020972	    0.033865	   -0.025252	   -0.013255	   -0.038507	   -0.007815	   -0.007019	   -0.014834	    0.001549	    0.005781	    0.007330	   -0.015456	   -0.016507	   -0.031963	   -0.021984	   -0.016732	   -0.038715	    0.078307	    0.043360	    0.121667	    0.075827	    0.080792	    0.156619	    0.005575	   -0.001068	    0.004507	    0.018409	    0.006738	    0.025148	    0.007607	    0.001862	    0.009469	    0.023297	    0.009951	    0.033248	   -0.007033	   -0.010953	   -0.017986	    0.045712	    0.013106	    0.058819	    0.115485	    0.096087	    0.211571	    0.176590	    0.168165	    0.344755	   -0.010913	   -0.012120	   -0.023033	   -0.001936	   -0.007659	   -0.009595	   -0.034879	   -0.034370	   -0.069248	    0.017580	   -0.005509	    0.012070	   -0.011117	   -0.015335	   -0.026452	    0.170488	    0.121499	    0.291987
     2.625	0	0	    0	    0.011441	    0.021935	    0.033376	   -0.025400	   -0.013097	   -0.038497	   -0.008055	   -0.007147	   -0.015202	    0.000591	    0.004438	    0.005029	   -0.015469	   -0.016158	   -0.031627	   -0.023952	   -0.015016	   -0.038969	    0.072996	    0.046499	    0.119495	    0.076901	    0.079609	    0.156509	    0.004726	   -0.000061	    0.004665	    0.017197	    0.007816	    0.025014	    0.006469	    0.001128	    0.007598	    0.022867	    0.010576	    0.033443	   -0.006711	   -0.010585	   -0.017296	    0.044531	    0.014312	    0.058843	    0.116819	    0.093308	    0.210127	    0.175857	    0.168659	    0.344515	   -0.009953	   -0.013007	   -0.022960	   -0.002493	   -0.007885	   -0.010378	   -0.034390	   -0.034532	   -0.068922	    0.017162	   -0.004964	    0.012198	   -0.011945	   -0.013304	   -0.025250	    0.164780	    0.128005	    0.292786
     2.700	0	0	    0	    0.012001	    0.020814	    0.032815	   -0.025568	   -0.013216	   -0.038784	   -0.007538	   -0.008204	   -0.015742	    0.000698	    0.002398	    0.003097	   -0.015057	   -0.016733	   -0.031790	   -0.023813	   -0.016738	   -0.040550	    0.078258	    0.037260	    0.115517	    0.076191	    0.079542	    0.155733	    0.003707	    0.000067	    0.003775	    0.015971	    0.007235	    0.023205	    0.005564	    0.000288	    0.005852	    0.023238	    0.009303	    0.032541	   -0.008394	   -0.010194	   -0.018588	    0.044957	    0.009259	    0.054216	    0.114427	    0.092823	    0.207251	    0.175412	    0.167128	    0.342540	   -0.011239	   -0.012060	   -0.023299	   -0.004130	   -0.008463	   -0.012592	   -0.036238	   -0.034655	   -0.070892	    0.014761	   -0.004797	    0.009964	   -0.012896	   -0.015053	   -0.027949	    0.175432	    0.114736	    0.290168
     2.775	0	0	    0	    0.010467	    0.020896	    0.031362	   -0.027035	   -0.012681	   -0.039715	   -0.009128	   -0.007946	   -0.017074	   -0.001625	    0.002622	    0.000997	   -0.017210	   -0.015759	   -0.032968	   -0.025810	   -0.016882	   -0.042692	    0.071795	    0.042529	    0.114324	    0.075184	    0.079695	    0.154879	    0.003109	   -0.000794	    0.002315	    0.014469	    0.006215	    0.020684	    0.004354	   -0.000433	    0.003922	    0.020546	    0.010644	    0.031190	   -0.010567	   -0.010961	   -0.021529	    0.045125	    0.006601	    0.051726	    0.110704	    0.095424	    0.206128	    0.174454	    0.166689	    0.341143	   -0.012374	   -0.013361	   -0.025735	   -0.006681	   -0.008654	   -0.015336	   -0.038489	   -0.034137	   -0.072626	    0.012387	   -0.005152	    0.007235	   -0.015809	   -0.014009	   -0.029818	    0.166065	    0.120092	    0.286156
     2.850	0	0	    0	    0.008011	    0.021844	    0.029855	   -0.027734	   -0.013241	   -0.040975	   -0.009917	   -0.007860	   -0.017777	   -0.002038	    0.002067	    0.000030	   -0.017834	   -0.016605	   -0.034439	   -0.029128	   -0.016248	   -0.045375	    0.073399	    0.035901	    0.109300	    0.073735	    0.080218	    0.153953	    0.001016	   -0.000249	    0.000767	    0.012940	    0.006465	    0.019405	    0.003818	   -0.000501	    0.003317	    0.018955	    0.009451	    0.028407	   -0.013581	   -0.010960	   -0.024542	    0.040411	    0.008959	    0.049371	    0.106542	    0.096430	    0.202971	    0.172930	    0.166898	    0.339828	   -0.014589	   -0.012177	   -0.026766	   -0.008329	   -0.008895	   -0.017223	   -0.041026	   -0.034538	   -0.075564	    0.008026	   -0.005290	    0.002737	   -0.018102	   -0.013976	   -0.032078	    0.161678	    0.119769	    0.281447
     2.925	0	0	    0	    0.007549	    0.020751	    0.028300	   -0.028742	   -0.013081	   -0.041823	   -0.011116	   -0.007439	   -0.018554	   -0.002077	    0.001174	   -0.000903	   -0.019039	   -0.016514	   -0.035553	   -0.031256	   -0.016493	   -0.047749	    0.066136	    0.039505	    0.105641	    0.074913	    0.077439	    0.152352	    0.000526	   -0.001011	   -0.000485	    0.011504	    0.006179	    0.017683	    0.002151	   -0.000252	    0.001899	    0.018291	    0.008878	    0.027169	   -0.015580	   -0.011855	   -0.027435	    0.037897	    0.013248	    0.051145	    0.108960	    0.092622	    0.201582	    0.173090	    0.165139	    0.338228	   -0.014762	   -0.013436	   -0.028199	   -0.011100	   -0.008693	   -0.019793	   -0.043167	   -0.034806	   -0.077973	    0.006206	   -0.007291	   -0.001085	   -0.018388	   -0.015425	   -0.033813	    0.166026	    0.118220	    0.284246
     3.000	0	0	    0	    0.006646	    0.020170	    0.026816	   -0.030304	   -0.012308	   -0.042612	   -0.012167	   -0.007087	   -0.019254	   -0.003834	    0.001149	   -0.002685	   -0.020675	   -0.016130	   -0.036806	   -0.034197	   -0.017131	   -0.051328	    0.063204	    0.040530	    0.103734	    0.073421	    0.078941	    0.152361	   -0.001830	    0.000852	   -0.000978	    0.009715	    0.006028	    0.015743	    0.001568	   -0.000535	    0.001032	    0.016621	    0.008937	    0.025558	   -0.019672	   -0.011051	   -0.030722	    0.034582	    0.012472	    0.047054	    0.107709	    0.091700	    0.199409	    0.171177	    0.166712	    0.337889	   -0.018443	   -0.011059	   -0.029502	   -0.013185	   -0.009949	   -0.023135	   -0.046351	   -0.035705	   -0.082057	    0.000434	   -0.006036	   -0.005602	   -0.022034	   -0.014639	   -0.036674	    0.160901	    0.117166	    0.278067
     3.075	0	0	    0	    0.007417	    0.018041	    0.025458	   -0.028246	   -0.012959	   -0.041205	   -0.010828	   -0.007850	   -0.018678	   -0.004873	    0.001466	   -0.003406	   -0.021357	   -0.016743	   -0.038101	   -0.031600	   -0.018714	   -0.050314	    0.071231	    0.035510	    0.106741	    0.073552	    0.077992	    0.151544	   -0.000387	   -0.001702	   -0.002089	    0.013100	    0.004365	    0.017465	    0.005084	   -0.001597	    0.003487	    0.016688	    0.006620	    0.023308	   -0.017021	   -0.014777	   -0.031798	    0.038340	    0.008249	    0.046589	    0.110201	    0.089919	    0.200120	    0.172104	    0.164520	    0.336624	   -0.015046	   -0.015234	   -0.030280	   -0.006559	   -0.011640	   -0.018199	   -0.040368	   -0.037746	   -0.078113	    0.004689	   -0.012120	   -0.007431	   -0.020156	   -0.017984	   -0.038141	    0.164026	    0.113341	    0.277367
     3.150	0	0	    0	    0.010013	    0.018596	    0.028609	   -0.024950	   -0.012165	   -0.037115	   -0.007688	   -0.007732	   -0.015420	   -0.001308	    0.000651	   -0.000657	   -0.017088	   -0.017368	   -0.034457	   -0.027206	   -0.017263	   -0.044469	    0.075776	    0.036295	    0.112072	    0.075863	    0.075907	    0.151770	    0.002706	   -0.000156	    0.002551	    0.016172	    0.005910	    0.022082	    0.006769	   -0.000056	    0.006713	    0.022758	    0.007439	    0.030197	   -0.007729	   -0.011976	   -0.019704	    0.038645	    0.011852	    0.050498	    0.110629	    0.091164	    0.201793	    0.174896	    0.164830	    0.339727	   -0.011127	   -0.012434	   -0.023561	   -0.003061	   -0.009150	   -0.012211	   -0.035428	   -0.035112	   -0.070540	    0.014822	   -0.008984	    0.005837	   -0.010992	   -0.016885	   -0.027877	    0.161175	    0.114510	    0.275685
     3.225	0	0	    0	    0.011007	    0.018153	    0.029160	   -0.024349	   -0.012565	   -0.036915	   -0.008319	   -0.006705	   -0.015024	    0.000536	    0.000577	    0.001113	   -0.016048	   -0.015659	   -0.031708	   -0.027694	   -0.015934	   -0.043628	    0.078018	    0.034794	    0.112812	    0.075800	    0.077539	    0.153339	    0.001960	    0.000982	    0.002941	    0.016455	    0.006182	    0.022637	    0.007288	   -0.000501	    0.006787	    0.024780	    0.009276	    0.034056	   -0.006541	   -0.010273	   -0.016815	    0.039813	    0.011413	    0.051226	    0.112157	    0.091348	    0.203504	    0.175171	    0.165351	    0.340522	   -0.010484	   -0.011983	   -0.022467	   -0.003525	   -0.008421	   -0.011947	   -0.035389	   -0.035220	   -0.070608	    0.015661	   -0.006652	    0.009010	   -0.010306	   -0.014004	   -0.024310	    0.168056	    0.114004	    0.282060
     3.300	0	0	    0	    0.009750	    0.019286	    0.029036	   -0.025748	   -0.011553	   -0.037301	   -0.008464	   -0.007364	   -0.015828	   -0.000781	    0.000438	   -0.000343	   -0.016493	   -0.015613	   -0.032106	   -0.029714	   -0.016016	   -0.045730	    0.065623	    0.042876	    0.108499	    0.075081	    0.078381	    0.153462	    0.002003	    0.000160	    0.002163	    0.015209	    0.006507	    0.021716	    0.007633	   -0.000687	    0.006946	    0.023157	    0.010823	    0.033980	   -0.008700	   -0.009875	   -0.018575	    0.040260	    0.007904	    0.048165	    0.113093	    0.087194	    0.200287	    0.174878	    0.165460	    0.340339	   -0.011599	   -0.012066	   -0.023665	   -0.004728	   -0.009456	   -0.014184	   -0.037398	   -0.035399	   -0.072797	    0.014263	   -0.007635	    0.006628	   -0.012383	   -0.013490	   -0.025873	    0.162245	    0.114187	    0.276432
     3.375	0	0	    0	    0.009964	    0.018410	    0.028375	   -0.024900	   -0.012701	   -0.037600	   -0.008307	   -0.007279	   -0.015586	   -0.001213	   -0.000503	   -0.001716	   -0.016667	   -0.016076	   -0.032743	   -0.028279	   -0.017508	   -0.045787	    0.078167	    0.031280	    0.109447	    0.075781	    0.076487	    0.152268	    0.001404	    0.000452	    0.001856	    0.015660	    0.005912	    0.021572	    0.010226	   -0.000662	    0.009564	    0.023101	    0.009980	    0.033081	   -0.008408	   -0.010670	   -0.019078	    0.038628	    0.009619	    0.048247	    0.108161	    0.091990	    0.200151	    0.174212	    0.164738	    0.338950	   -0.011399	   -0.012865	   -0.024264	   -0.004650	   -0.009694	   -0.014344	   -0.037713	   -0.035996	   -0.073708	    0.013832	   -0.008199	    0.005633	   -0.011237	   -0.015503	   -0.026740	    0.164049	    0.114258	    0.278308
     3.450	0	0	    0	    0.007775	    0.020822	    0.028597	   -0.025058	   -0.012577	   -0.037635	   -0.007073	   -0.007656	   -0.014728	   -0.001592	    0.000282	   -0.001310	   -0.016809	   -0.016127	   -0.032935	   -0.028734	   -0.018256	   -0.046990	    0.077782	    0.031434	    0.109216	    0.075391	    0.076600	    0.151990	    0.002067	   -0.001158	    0.000909	    0.015283	    0.006274	    0.021557	    0.010515	    0.001412	    0.011927	    0.023405	    0.009909	    0.033314	   -0.007916	   -0.011019	   -0.018935	    0.042957	    0.004285	    0.047242	    0.112839	    0.087296	    0.200135	    0.173374	    0.165125	    0.338498	   -0.010025	   -0.014396	   -0.024421	   -0.005637	   -0.010238	   -0.015875	   -0.039326	   -0.036007	   -0.075333	    0.014243	   -0.009444	    0.004799	   -0.012105	   -0.014325	   -0.026430	    0.163260	    0.112856	    0.276116
     3.525	0	0	    0	    0.010867	    0.017100	    0.027967	   -0.026872	   -0.011530	   -0.038402	   -0.008381	   -0.006293	   -0.014674	   -0.000948	   -0.000586	   -0.001533	   -0.017311	   -0.016290	   -0.033601	   -0.031677	   -0.016998	   -0.048676	    0.068606	    0.038438	    0.107044	    0.076108	    0.074569	    0.150677	   -0.000148	    0.000843	    0.000695	    0.014776	    0.006215	    0.020992	    0.012152	    0.001554	    0.013706	    0.024021	    0.010221	    0.034243	   -0.010741	   -0.010099	   -0.020841	    0.036030	    0.005293	    0.041323	    0.109773	    0.087892	    0.197665	    0.172455	    0.164518	    0.336973	   -0.013419	   -0.011376	   -0.024795	   -0.008176	   -0.010398	   -0.018574	   -0.041552	   -0.037099	   -0.078650	    0.010235	   -0.006961	    0.003274	   -0.015686	   -0.013378	   -0.029064	    0.161401	    0.111210	    0.272611
     3.600	0	0	    0	    0.007617	    0.020109	    0.027726	   -0.027096	   -0.012355	   -0.039451	   -0.007050	   -0.006708	   -0.013758	   -0.000913	   -0.000968	   -0.001881	   -0.018731	   -0.016674	   -0.035405	   -0.033258	   -0.017808	   -0.051066	    0.068912	    0.037716	    0.106628	    0.073636	    0.075317	    0.148952	   -0.000212	   -0.000962	   -0.001174	    0.013855	    0.006381	    0.020236	    0.013806	    0.004515	    0.018321	    0.021887	    0.010264	    0.032151	   -0.012946	   -0.010893	   -0.023839	    0.032692	    0.005283	    0.037976	    0.110028	    0.087168	    0.197196	    0.171593	    0.164052	    0.335645	   -0.012814	   -0.014360	   -0.027174	   -0.010723	   -0.011125	   -0.021847	   -0.044007	   -0.038212	   -0.082220	    0.009872	   -0.010093	   -0.000220	   -0.013734	   -0.016902	   -0.030636	    0.164155	    0.107334	    0.271489
     3.675	0	0	    0	    0.007209	    0.018269	    0.025479	   -0.027698	   -0.013402	   -0.041101	   -0.008194	   -0.005407	   -0.013601	   -0.002567	    0.000872	   -0.001695	   -0.020754	   -0.016491	   -0.037245	   -0.035187	   -0.018169	   -0.053356	    0.068649	    0.033426	    0.102075	    0.072177	    0.074111	    0.146288	   -0.002036	   -0.001233	   -0.003269	    0.012694	    0.006346	    0.019040	    0.014696	    0.006393	    0.021089	    0.022074	    0.009091	    0.031165	   -0.015970	   -0.011105	   -0.027074	    0.027736	    0.008080	    0.035816	    0.109325	    0.083573	    0.192898	    0.170725	    0.162864	    0.333589	   -0.015680	   -0.012156	   -0.027836	   -0.012691	   -0.011695	   -0.024386	   -0.046907	   -0.038935	   -0.085843	    0.006411	   -0.009786	   -0.003374	   -0.017093	   -0.015199	   -0.032292	    0.160608	    0.108685	    0.269293
     3.750	0	0	    0	    0.004634	    0.019356	    0.023990	   -0.029948	   -0.012946	   -0.042894	   -0.009728	   -0.004793	   -0.014521	   -0.002373	   -0.000222	   -0.002594	   -0.021601	   -0.017414	   -0.039015	   -0.038065	   -0.018718	   -0.056782	    0.064100	    0.033192	    0.097292	    0.070702	    0.073268	    0.143970	   -0.003413	   -0.001807	   -0.005221	    0.010788	    0.006400	    0.017188	    0.014145	    0.006998	    0.021143	    0.019614	    0.009765	    0.029379	   -0.018689	   -0.012140	   -0.030829	    0.027402	    0.004249	    0.031651	    0.106668	    0.083558	    0.190226	    0.169472	    0.162564	    0.332036	   -0.015335	   -0.014533	   -0.029868	   -0.014695	   -0.012767	   -0.027462	   -0.048869	   -0.039889	   -0.088758	    0.004100	   -0.011933	   -0.007833	   -0.020729	   -0.015228	   -0.035957	    0.156749	    0.109584	    0.266333
     3.825	0	0	    0	    0.003289	    0.020750	    0.024039	   -0.030578	   -0.012672	   -0.043250	   -0.009441	   -0.005444	   -0.014884	   -0.003618	    0.000424	   -0.003193	   -0.023710	   -0.017091	   -0.040801	   -0.039000	   -0.019064	   -0.058063	    0.063410	    0.037908	    0.101318	    0.070398	    0.072558	    0.142956	   -0.003975	   -0.002031	   -0.006006	    0.011354	    0.005510	    0.016864	    0.015608	    0.006943	    0.022551	    0.018368	    0.009466	    0.027835	   -0.020413	   -0.013822	   -0.034236	    0.025331	    0.005548	    0.030878	    0.097282	    0.094098	    0.191380	    0.168735	    0.161871	    0.330606	   -0.017029	   -0.014328	   -0.031357	   -0.011353	   -0.014161	   -0.025514	   -0.045148	   -0.040998	   -0.086146	    0.002274	   -0.012182	   -0.009907	   -0.022793	   -0.015667	   -0.038460	    0.153002	    0.113263	    0.266265
     3.900	0	0	    0	    0.009317	    0.015835	    0.025152	   -0.024994	   -0.013244	   -0.038238	   -0.004264	   -0.006291	   -0.010555	   -0.000416	   -0.000752	   -0.001168	   -0.019213	   -0.018722	   -0.037935	   -0.029043	   -0.020895	   -0.049938	    0.084294	    0.028776	    0.113070	    0.073186	    0.069830	    0.143015	    0.000229	   -0.001392	   -0.001163	    0.017329	    0.005446	    0.022775	    0.019827	    0.007837	    0.027664	    0.024239	    0.007643	    0.031882	   -0.008856	   -0.013753	   -0.022609	    0.043905	   -0.002262	    0.041643	    0.106869	    0.083938	    0.190807	    0.171466	    0.160595	    0.332061	   -0.011589	   -0.013557	   -0.025146	   -0.005311	   -0.011639	   -0.016950	   -0.037276	   -0.038306	   -0.075581	    0.015575	   -0.012966	    0.002609	   -0.010907	   -0.017102	   -0.028009	    0.158582	    0.112364	    0.270946
     3.975	0	0	    0	    0.008228	    0.019898	    0.028127	   -0.024314	   -0.012727	   -0.037041	   -0.004512	   -0.005042	   -0.009553	    0.001053	    0.000086	    0.001139	   -0.016300	   -0.016714	   -0.033013	   -0.028990	   -0.018262	   -0.047252	    0.081714	    0.034893	    0.116607	    0.071595	    0.072760	    0.144355	    0.000970	   -0.000378	    0.000593	    0.018052	    0.006597	    0.024649	    0.020417	    0.007587	    0.028005	    0.027513	    0.010537	    0.038051	   -0.006610	   -0.009961	   -0.016571	    0.039081	    0.002803	    0.041884	    0.110688	    0.080567	    0.191256	    0.171037	    0.162091	    0.333128	   -0.011334	   -0.010543	   -0.021877	   -0.003377	   -0.010995	   -0.014371	   -0.035170	   -0.037215	   -0.072385	    0.017676	   -0.008908	    0.008768	   -0.009044	   -0.013779	   -0.022823	    0.166788	    0.102984	    0.269772
     4.050	0	0	    0	    0.009208	    0.018659	    0.027867	   -0.024948	   -0.012681	   -0.037629	   -0.004840	   -0.005497	   -0.010337	    0.001380	   -0.000156	    0.001224	   -0.015868	   -0.016498	   -0.032366	   -0.030281	   -0.017542	   -0.047823	    0.075604	    0.035532	    0.111137	    0.073095	    0.071425	    0.144520	    0.001524	   -0.000891	    0.000633	    0.017457	    0.007164	    0.024621	    0.019553	    0.007225	    0.026778	    0.028327	    0.010556	    0.038883	   -0.005602	   -0.010555	   -0.016157	    0.038294	    0.002245	    0.040540	    0.105464	    0.084806	    0.190270	    0.171693	    0.161462	    0.333155	   -0.010114	   -0.011284	   -0.021397	   -0.004407	   -0.010211	   -0.014618	   -0.036223	   -0.036622	   -0.072845	    0.019711	   -0.009895	    0.009816	   -0.008128	   -0.014601	   -0.022729	    0.156770	    0.110483	    0.267253
     4.125	0	0	    0	    0.010734	    0.017107	    0.027840	   -0.025059	   -0.012992	   -0.038052	   -0.004192	   -0.006550	   -0.010742	    0.001614	   -0.000915	    0.000700	   -0.015898	   -0.017152	   -0.033050	   -0.030625	   -0.018077	   -0.048701	    0.073595	    0.035905	    0.109500	    0.073584	    0.069859	    0.143443	    0.000874	   -0.000584	    0.000290	    0.015825	    0.007789	    0.023614	    0.020011	    0.006616	    0.026627	    0.028892	    0.009827	    0.038720	   -0.007186	   -0.010863	   -0.018049	    0.037170	   -0.001479	    0.035691	    0.109866	    0.080897	    0.190763	    0.171909	    0.160580	    0.332489	   -0.009171	   -0.012974	   -0.022145	   -0.004490	   -0.010820	   -0.015310	   -0.036252	   -0.037406	   -0.073658	    0.018048	   -0.010042	    0.008006	   -0.011114	   -0.014235	   -0.025349	    0.163554	    0.102516	    0.266070
     4.200	0	0	    0	    0.008989	    0.018178	    0.027167	   -0.024679	   -0.013424	   -0.038104	   -0.004278	   -0.007003	   -0.011281	    0.001837	   -0.001615	    0.000222	   -0.015711	   -0.017039	   -0.032749	   -0.030246	   -0.018173	   -0.048418	    0.078233	    0.033506	    0.111738	    0.073865	    0.069889	    0.143754	    0.000370	   -0.001025	   -0.000655	    0.017251	    0.006430	    0.023681	    0.019104	    0.006298	    0.025402	    0.028117	    0.010711	    0.038828	   -0.006931	   -0.010845	   -0.017776	    0.040346	   -0.000370	    0.039976	    0.105935	    0.085543	    0.191477	    0.171201	    0.161050	    0.332251	   -0.010592	   -0.012357	   -0.022949	   -0.005079	   -0.010705	   -0.015785	   -0.036947	   -0.037086	   -0.074033	    0.017573	   -0.009433	    0.008141	   -0.009381	   -0.015487	   -0.024868	    0.158460	    0.108665	    0.267125
     4.275	0	0	    0	    0.009219	    0.018777	    0.027996	   -0.025868	   -0.012317	   -0.038185	   -0.005421	   -0.006510	   -0.011931	    0.001479	   -0.001495	   -0.000016	   -0.016405	   -0.016637	   -0.033042	   -0.030939	   -0.018976	   -0.049915	    0.075103	    0.032312	    0.107415	    0.073267	    0.070041	    0.143307	   -0.000877	   -0.000295	   -0.001172	    0.015998	    0.006816	    0.022814	    0.018844	    0.006537	    0.025381	    0.028806	    0.009426	    0.038232	   -0.009425	   -0.009969	   -0.019394	    0.037642	    0.000304	    0.037946	    0.105612	    0.083367	    0.188979	    0.169843	    0.161755	    0.331598	   -0.012859	   -0.011068	   -0.023927	   -0.006866	   -0.011100	   -0.017966	   -0.038933	   -0.037610	   -0.076543	    0.015497	   -0.009423	    0.006074	   -0.013871	   -0.012520	   -0.026391	    0.158131	    0.107995	    0.266126
     4.350	0	0	    0	    0.007210	    0.018417	    0.025627	   -0.028300	   -0.011943	   -0.040243	   -0.006283	   -0.006418	   -0.012700	    0.000184	   -0.001262	   -0.001078	   -0.017965	   -0.016776	   -0.034741	   -0.036021	   -0.017593	   -0.053613	    0.064105	    0.038747	    0.102853	    0.071630	    0.069957	    0.141587	   -0.000845	   -0.001953	   -0.002797	    0.014797	    0.005960	    0.020758	    0.018555	    0.006208	    0.024763	    0.027586	    0.009399	    0.036985	   -0.011416	   -0.012027	   -0.023443	    0.031885	    0.001426	    0.033311	    0.104304	    0.082510	    0.186815	    0.170107	    0.160129	    0.330237	   -0.013095	   -0.013548	   -0.026642	   -0.009258	   -0.011785	   -0.021043	   -0.041462	   -0.038248	   -0.079710	    0.012813	   -0.010481	    0.002332	   -0.014686	   -0.015046	   -0.029731	    0.160292	    0.101639	    0.261931
     4.425	0	0	    0	    0.006476	    0.017463	    0.023939	   -0.028575	   -0.012756	   -0.041331	   -0.006607	   -0.006524	   -0.013131	   -0.000542	   -0.000886	   -0.001428	   -0.019111	   -0.017330	   -0.036441	   -0.035989	   -0.019686	   -0.055674	    0.066891	    0.033251	    0.100142	    0.070577	    0.069020	    0.139596	   -0.002368	   -0.001851	   -0.004219	    0.013008	    0.006228	    0.019235	    0.017876	    0.007304	    0.025180	    0.025670	    0.009696	    0.035366	   -0.015152	   -0.011565	   -0.026717	    0.032039	   -0.001836	    0.030203	    0.102815	    0.080672	    0.183487	    0.168484	    0.160066	    0.328550	   -0.014792	   -0.012990	   -0.027782	   -0.011909	   -0.011757	   -0.023666	   -0.044209	   -0.038700	   -0.082910	    0.009914	   -0.010549	   -0.000635	   -0.017207	   -0.014922	   -0.032130	    0.158203	    0.102278	    0.260481
     4.500	0	0	    0	    0.005840	    0.017407	    0.023246	   -0.029613	   -0.012808	   -0.042421	   -0.009083	   -0.005261	   -0.014345	   -0.001569	   -0.000996	   -0.002565	   -0.020642	   -0.017036	   -0.037678	   -0.038774	   -0.018895	   -0.057669	    0.056149	    0.042372	    0.098521	    0.068541	    0.070275	    0.138816	   -0.004917	   -0.000870	   -0.005787	    0.011590	    0.006375	    0.017966	    0.015424	    0.007556	    0.022979	    0.023611	    0.009949	    0.033560	   -0.017924	   -0.011642	   -0.029566	    0.027198	    0.003221	    0.030419	    0.104154	    0.078322	    0.182475	    0.166858	    0.159859	    0.326716	   -0.016422	   -0.012236	   -0.028659	   -0.013831	   -0.012117	   -0.025949	   -0.046611	   -0.038772	   -0.085384	    0.005777	   -0.010378	   -0.004601	   -0.019909	   -0.014938	   -0.034847	    0.152034	    0.104806	    0.256840
     4.575	0	0	    0	    0.002655	    0.018693	    0.021348	   -0.031095	   -0.012699	   -0.043793	   -0.009310	   -0.005816	   -0.015126	   -0.003499	    0.000111	   -0.003388	   -0.023161	   -0.016369	   -0.039530	   -0.040882	   -0.019537	   -0.060419	    0.062533	    0.033752	    0.096285	    0.066704	    0.070082	    0.136787	   -0.005644	   -0.000883	   -0.006527	    0.009613	    0.006069	    0.015682	    0.015584	    0.007335	    0.022918	    0.019393	    0.011573	    0.030966	   -0.021566	   -0.011822	   -0.033388	    0.024217	    0.002371	    0.026588	    0.099638	    0.080425	    0.180064	    0.165291	    0.159725	    0.325016	   -0.019211	   -0.011962	   -0.031173	   -0.015033	   -0.013275	   -0.028309	   -0.047795	   -0.039920	   -0.087714	    0.001117	   -0.010184	   -0.009067	   -0.021316	   -0.017289	   -0.038605	    0.147917	    0.104052	    0.251969
     4.650	0	0	    0	    0.004134	    0.017417	    0.021551	   -0.026846	   -0.013854	   -0.040700	   -0.005926	   -0.007116	   -0.013042	   -0.002332	   -0.001717	   -0.004050	   -0.021953	   -0.018086	   -0.040039	   -0.035297	   -0.021169	   -0.056465	    0.071494	    0.032203	    0.103697	    0.068717	    0.067537	    0.136254	   -0.002669	   -0.003109	   -0.005779	    0.014957	    0.005882	    0.020839	    0.020310	    0.006905	    0.027215	    0.022394	    0.008319	    0.030714	   -0.014562	   -0.015353	   -0.029914	    0.033742	    0.000374	    0.034116	    0.099834	    0.081559	    0.181393	    0.167495	    0.156975	    0.324470	   -0.013928	   -0.014118	   -0.028047	   -0.005617	   -0.013604	   -0.019222	   -0.038578	   -0.039999	   -0.078577	    0.008990	   -0.014241	   -0.005251	   -0.016251	   -0.018487	   -0.034737	    0.154702	    0.101609	    0.256311
     4.725	0	0	    0	    0.008858	    0.016339	    0.025197	   -0.026000	   -0.012631	   -0.038631	   -0.005227	   -0.005880	   -0.011107	    0.001735	   -0.001733	    0.000002	   -0.017584	   -0.016959	   -0.034543	   -0.031191	   -0.019590	   -0.050781	    0.075960	    0.031657	    0.107617	    0.070668	    0.066323	    0.136991	   -0.001210	   -0.000974	   -0.002184	    0.017275	    0.006115	    0.023390	    0.020548	    0.008406	    0.028954	    0.027969	    0.009658	    0.037627	   -0.006981	   -0.011593	   -0.018573	    0.034468	    0.002055	    0.036523	    0.099764	    0.081584	    0.181348	    0.168463	    0.158151	    0.326614	   -0.011482	   -0.012263	   -0.023746	   -0.002811	   -0.010658	   -0.013468	   -0.033823	   -0.036913	   -0.070736	    0.018143	   -0.010061	    0.008082	   -0.010693	   -0.014796	   -0.025488	    0.153408	    0.104128	    0.257537
     4.800	0	0	    0	    0.008254	    0.018576	    0.026830	   -0.025887	   -0.012868	   -0.038755	   -0.004861	   -0.006984	   -0.011845	    0.002268	   -0.000702	    0.001566	   -0.016558	   -0.017494	   -0.034052	   -0.031683	   -0.018836	   -0.050518	    0.073873	    0.035939	    0.109812	    0.068260	    0.068978	    0.137238	   -0.003208	    0.000237	   -0.002971	    0.017228	    0.006789	    0.024017	    0.021225	    0.005912	    0.027137	    0.029018	    0.011133	    0.040151	   -0.007443	   -0.010301	   -0.017743	    0.032919	    0.004296	    0.037215	    0.106748	    0.077886	    0.184634	    0.167405	    0.158802	    0.326208	   -0.012581	   -0.011139	   -0.023720	   -0.001350	   -0.010771	   -0.012121	   -0.033139	   -0.036338	   -0.069477	    0.017399	   -0.006892	    0.010507	   -0.010602	   -0.015181	   -0.025783	    0.158486	    0.100947	    0.259433
     4.875	0	0	    0	    0.006515	    0.019644	    0.026159	   -0.026279	   -0.012787	   -0.039066	   -0.005538	   -0.006971	   -0.012509	    0.001375	   -0.000687	    0.000688	   -0.016864	   -0.016549	   -0.033413	   -0.032419	   -0.019055	   -0.051474	    0.070145	    0.033562	    0.103707	    0.067713	    0.067934	    0.135647	   -0.001199	   -0.002226	   -0.003426	    0.016039	    0.006996	    0.023035	    0.020914	    0.005689	    0.026603	    0.028733	    0.010760	    0.039494	   -0.007338	   -0.010854	   -0.018193	    0.033637	    0.000223	    0.033860	    0.105442	    0.075850	    0.181292	    0.167368	    0.157943	    0.325311	   -0.011934	   -0.012358	   -0.024292	   -0.003820	   -0.010256	   -0.014075	   -0.034755	   -0.036533	   -0.071288	    0.017281	   -0.009222	    0.008059	   -0.012709	   -0.013789	   -0.026497	    0.152351	    0.103007	    0.255358
     4.950	0	0	    0	    0.009699	    0.016574	    0.026273	   -0.025559	   -0.013181	   -0.038739	   -0.004678	   -0.007493	   -0.012172	    0.002017	   -0.001746	    0.000270	   -0.016446	   -0.017563	   -0.034009	   -0.032034	   -0.019259	   -0.051292	    0.072041	    0.033171	    0.105212	    0.069430	    0.065611	    0.135041	   -0.002815	   -0.001247	   -0.004061	    0.017259	    0.006332	    0.023591	    0.020331	    0.005708	    0.026039	    0.029388	    0.010043	    0.039431	   -0.008769	   -0.009564	   -0.018332	    0.032181	    0.004201	    0.036381	    0.101552	    0.078309	    0.179860	    0.167069	    0.157595	    0.324664	   -0.013533	   -0.010663	   -0.024196	   -0.003389	   -0.010529	   -0.013918	   -0.035249	   -0.036331	   -0.071580	    0.015589	   -0.008913	    0.006676	   -0.011979	   -0.014794	   -0.026773	    0.152985	    0.101315	    0.254300
     5.025	0	0	    0	    0.010408	    0.015355	    0.025763	   -0.026071	   -0.012997	   -0.039068	   -0.004824	   -0.007681	   -0.012505	    0.002490	   -0.001825	    0.000665	   -0.016203	   -0.017391	   -0.033594	   -0.032310	   -0.019355	   -0.051665	    0.074103	    0.028935	    0.103038	    0.069919	    0.064945	    0.134864	   -0.001664	   -0.002353	   -0.004017	    0.016530	    0.006515	    0.023045	    0.020177	    0.005828	    0.026005	    0.029113	    0.009741	    0.038854	   -0.008476	   -0.010580	   -0.019055	    0.033753	    0.001090	    0.034843	    0.103969	    0.075093	    0.179061	    0.166022	    0.158050	    0.324072	   -0.012477	   -0.012543	   -0.025020	   -0.005283	   -0.010374	   -0.015656	   -0.036672	   -0.036474	   -0.073147	    0.016058	   -0.009882	    0.006176	   -0.012281	   -0.014680	   -0.026960	    0.151289	    0.102677	    0.253965
     5.100	0	0	    0	    0.006766	    0.017193	    0.023959	   -0.026005	   -0.014002	   -0.040006	   -0.005708	   -0.007252	   -0.012960	    0.001341	   -0.001571	   -0.000230	   -0.017931	   -0.016970	   -0.034901	   -0.032820	   -0.021133	   -0.053953	    0.072703	    0.028095	    0.100798	    0.069303	    0.064227	    0.133530	   -0.002039	   -0.003221	   -0.005260	    0.015196	    0.006098	    0.021294	    0.018061	    0.006088	    0.024149	    0.027355	    0.009609	    0.036964	   -0.010399	   -0.011090	   -0.021488	    0.033596	   -0.002935	    0.030662	    0.098322	    0.079444	    0.177766	    0.165049	    0.157654	    0.322703	   -0.013967	   -0.012253	   -0.026220	   -0.007651	   -0.010919	   -0.018570	   -0.039721	   -0.036802	   -0.076523	    0.013333	   -0.010824	    0.002509	   -0.012729	   -0.016240	   -0.028969	    0.148811	    0.100959	    0.249770
     5.175	0	0	    0	    0.004720	    0.018490	    0.023209	   -0.028665	   -0.012136	   -0.040801	   -0.007190	   -0.006723	   -0.013913	   -0.000880	   -0.000989	   -0.001869	   -0.019070	   -0.016548	   -0.035617	   -0.036889	   -0.019437	   -0.056326	    0.062630	    0.033934	    0.096563	    0.066403	    0.067356	    0.133759	   -0.002448	   -0.003377	   -0.005825	    0.013072	    0.006636	    0.019708	    0.018194	    0.005343	    0.023537	    0.025632	    0.010264	    0.035896	   -0.013431	   -0.010767	   -0.024198	    0.028996	    0.000899	    0.029896	    0.102147	    0.074333	    0.176479	    0.164943	    0.156617	    0.321561	   -0.013938	   -0.013889	   -0.027827	   -0.009505	   -0.011890	   -0.021395	   -0.042236	   -0.037754	   -0.079990	    0.010583	   -0.011503	   -0.000919	   -0.014922	   -0.015865	   -0.030786	    0.151829	    0.098623	    0.250452
     5.250	0	0	    0	    0.004013	    0.017307	    0.021320	   -0.029181	   -0.012535	   -0.041716	   -0.007288	   -0.007092	   -0.014380	   -0.001317	   -0.001693	   -0.003010	   -0.020582	   -0.017274	   -0.037856	   -0.039266	   -0.019915	   -0.059181	    0.060077	    0.035545	    0.095622	    0.066391	    0.064720	    0.131111	   -0.004133	   -0.002931	   -0.007064	    0.012218	    0.006016	    0.018234	    0.016877	    0.005680	    0.022557	    0.023849	    0.008967	    0.032816	   -0.015771	   -0.012514	   -0.028286	    0.025158	    0.001502	    0.026659	    0.098100	    0.075062	    0.173162	    0.163096	    0.156102	    0.319198	   -0.015706	   -0.013813	   -0.029519	   -0.012233	   -0.012365	   -0.024598	   -0.045184	   -0.038286	   -0.083470	    0.007266	   -0.013222	   -0.005956	   -0.017479	   -0.016721	   -0.034201	    0.149636	    0.095416	    0.245053
     5.325	0	0	    0	    0.003790	    0.015897	    0.019688	   -0.030336	   -0.013009	   -0.043344	   -0.007974	   -0.007722	   -0.015696	   -0.002540	   -0.001709	   -0.004249	   -0.022441	   -0.017348	   -0.039789	   -0.041272	   -0.019687	   -0.060959	    0.062740	    0.026332	    0.089072	    0.064597	    0.065157	    0.129754	   -0.005433	   -0.002849	   -0.008282	    0.012120	    0.004664	    0.016784	    0.016000	    0.005576	    0.021576	    0.022308	    0.008306	    0.030614	   -0.019324	   -0.012192	   -0.031515	    0.026935	   -0.001509	    0.025425	    0.095814	    0.074054	    0.169868	    0.161534	    0.156515	    0.318049	   -0.017303	   -0.013682	   -0.030985	   -0.014775	   -0.012395	   -0.027170	   -0.047196	   -0.039137	   -0.086333	    0.003391	   -0.012312	   -0.008921	   -0.020473	   -0.016458	   -0.036931	    0.144988	    0.096669	    0.241657
     5.400	0	0	    0	    0.002669	    0.016187	    0.018857	   -0.030980	   -0.013413	   -0.044393	   -0.009557	   -0.006761	   -0.016318	   -0.004029	   -0.000924	   -0.004953	   -0.023360	   -0.018252	   -0.041613	   -0.042719	   -0.021420	   -0.064138	    0.066167	    0.023785	    0.089951	    0.064021	    0.063581	    0.127602	   -0.007400	   -0.001754	   -0.009154	    0.009617	    0.005384	    0.015002	    0.015680	    0.006155	    0.021835	    0.020202	    0.008226	    0.028427	   -0.022046	   -0.013203	   -0.035249	    0.023609	   -0.001972	    0.021637	    0.096599	    0.073741	    0.170340	    0.161197	    0.155025	    0.316222	   -0.018642	   -0.013406	   -0.032048	   -0.015758	   -0.014110	   -0.029868	   -0.049052	   -0.040149	   -0.089202	    0.000372	   -0.013650	   -0.013278	   -0.022454	   -0.017246	   -0.039700	    0.147192	    0.092234	    0.239426
     5.475	0	0	    0	    0.002513	    0.016157	    0.018670	   -0.029245	   -0.013685	   -0.042930	   -0.007139	   -0.008162	   -0.015301	   -0.003397	   -0.002020	   -0.005417	   -0.024648	   -0.018309	   -0.042957	   -0.039214	   -0.022294	   -0.061509	    0.065178	    0.031442	    0.096620	    0.063838	    0.063857	    0.127695	   -0.005747	   -0.003769	   -0.009516	    0.013486	    0.004556	    0.018042	    0.019295	    0.004762	    0.024058	    0.018965	    0.007999	    0.026964	   -0.019471	   -0.015167	   -0.034638	    0.031326	   -0.004747	    0.026579	    0.098989	    0.072194	    0.171184	    0.161054	    0.154145	    0.315199	   -0.016739	   -0.015362	   -0.032101	   -0.007232	   -0.014557	   -0.021789	   -0.039613	   -0.040861	   -0.080473	    0.003958	   -0.015841	   -0.011883	   -0.020987	   -0.017483	   -0.038470	    0.151845	    0.091506	    0.243351
     5.550	0	0	    0	    0.007172	    0.015458	    0.022630	   -0.025767	   -0.012971	   -0.038738	   -0.004033	   -0.007303	   -0.011336	    0.000429	   -0.002135	   -0.001707	   -0.018623	   -0.018851	   -0.037475	   -0.034130	   -0.020519	   -0.054649	    0.073703	    0.030726	    0.104429	    0.065073	    0.063258	    0.128331	   -0.002522	   -0.001865	   -0.004387	    0.017130	    0.005976	    0.023107	    0.020618	    0.006061	    0.026679	    0.026225	    0.008323	    0.034548	   -0.009622	   -0.011423	   -0.021046	    0.034239	    0.000007	    0.034246	    0.099190	    0.074476	    0.173666	    0.162370	    0.154870	    0.317240	   -0.012142	   -0.013172	   -0.025314	   -0.004454	   -0.011016	   -0.015470	   -0.035513	   -0.037129	   -0.072641	    0.014560	   -0.011715	    0.002846	   -0.011229	   -0.015528	   -0.026757	    0.147993	    0.097064	    0.245057
     5.625	0	0	    0	    0.007056	    0.016923	    0.023980	   -0.025170	   -0.012855	   -0.038025	   -0.004175	   -0.007126	   -0.011301	    0.001448	   -0.002249	   -0.000801	   -0.017641	   -0.017324	   -0.034965	   -0.033478	   -0.019607	   -0.053085	    0.074362	    0.030603	    0.104965	    0.065800	    0.062733	    0.128534	   -0.002341	   -0.001362	   -0.003704	    0.017447	    0.006526	    0.023973	    0.020520	    0.005193	    0.025713	    0.029294	    0.008368	    0.037662	   -0.007578	   -0.010405	   -0.017983	    0.033914	    0.000832	    0.034746	    0.098381	    0.075096	    0.173478	    0.162508	    0.155333	    0.317841	   -0.012897	   -0.011311	   -0.024207	   -0.003661	   -0.010762	   -0.014422	   -0.035070	   -0.037074	   -0.072144	    0.015622	   -0.009915	    0.005707	   -0.010334	   -0.013944	   -0.024278	    0.146349	    0.096860	    0.243209
     5.700	0	0	    0	    0.005981	    0.018340	    0.024321	   -0.025901	   -0.012496	   -0.038397	   -0.004969	   -0.007099	   -0.012067	    0.001116	   -0.002598	   -0.001482	   -0.017982	   -0.016678	   -0.034661	   -0.034649	   -0.019502	   -0.054151	    0.063508	    0.037199	    0.100708	    0.064986	    0.063912	    0.128898	   -0.002196	   -0.002138	   -0.004334	    0.016352	    0.006936	    0.023288	    0.020196	    0.004435	    0.024632	    0.027981	    0.009533	    0.037514	   -0.007898	   -0.010635	   -0.018533	    0.029944	    0.003453	    0.033397	    0.098646	    0.073512	    0.172158	    0.162789	    0.154757	    0.317546	   -0.011195	   -0.013242	   -0.024437	   -0.004911	   -0.011166	   -0.016078	   -0.036338	   -0.037299	   -0.073637	    0.016055	   -0.011987	    0.004068	   -0.010799	   -0.014541	   -0.025340	    0.148284	    0.095542	    0.243826
     5.775	0	0	    0	    0.006127	    0.016087	    0.022214	   -0.025570	   -0.013597	   -0.039167	   -0.004362	   -0.008242	   -0.012603	    0.000316	   -0.003037	   -0.002720	   -0.018253	   -0.016955	   -0.035208	   -0.034519	   -0.019960	   -0.054479	    0.068232	    0.031902	    0.100133	    0.064961	    0.062163	    0.127124	   -0.002153	   -0.003007	   -0.005159	    0.016563	    0.006102	    0.022665	    0.018416	    0.004243	    0.022658	    0.028471	    0.008088	    0.036559	   -0.008235	   -0.011322	   -0.019557	    0.031465	   -0.000202	    0.031263	    0.096604	    0.075069	    0.171673	    0.161679	    0.154845	    0.316524	   -0.012807	   -0.012076	   -0.024883	   -0.005017	   -0.011312	   -0.016328	   -0.036618	   -0.037258	   -0.073876	    0.013549	   -0.010102	    0.003446	   -0.010778	   -0.016006	   -0.026783	    0.142440	    0.099093	    0.241534
     5.850	0	0	    0	    0.008344	    0.014155	    0.022500	   -0.025265	   -0.013157	   -0.038421	   -0.005092	   -0.007814	   -0.012906	    0.000056	   -0.003326	   -0.003270	   -0.017278	   -0.017902	   -0.035181	   -0.035009	   -0.020121	   -0.055130	    0.074826	    0.023383	    0.098209	    0.064873	    0.062062	    0.126935	   -0.000617	   -0.004522	   -0.005140	    0.015844	    0.006187	    0.022031	    0.017924	    0.003783	    0.021707	    0.027669	    0.008141	    0.035810	   -0.007760	   -0.011989	   -0.019749	    0.034270	   -0.001825	    0.032445	    0.094147	    0.073983	    0.168130	    0.161444	    0.154445	    0.315889	   -0.011643	   -0.014080	   -0.025723	   -0.006420	   -0.011325	   -0.017745	   -0.038158	   -0.037062	   -0.075219	    0.015436	   -0.013371	    0.002066	   -0.011107	   -0.015831	   -0.026938	    0.145186	    0.093605	    0.238791
     5.925	0	0	    0	    0.006701	    0.014881	    0.021582	   -0.027121	   -0.012640	   -0.039761	   -0.005523	   -0.008312	   -0.013834	   -0.000280	   -0.003719	   -0.003998	   -0.018206	   -0.017887	   -0.036094	   -0.036222	   -0.020253	   -0.056475	    0.065929	    0.026625	    0.092554	    0.064373	    0.061080	    0.125453	   -0.003551	   -0.002173	   -0.005724	    0.014921	    0.004955	    0.019876	    0.016846	    0.003202	    0.020048	    0.026785	    0.007601	    0.034386	   -0.011596	   -0.010290	   -0.021886	    0.031326	   -0.004747	    0.026579	    0.093394	    0.073402	    0.166796	    0.160993	    0.153834	    0.314827	   -0.015497	   -0.011462	   -0.026959	   -0.008672	   -0.011855	   -0.020527	   -0.040468	   -0.037325	   -0.077793	    0.010979	   -0.010819	    0.000161	   -0.014138	   -0.015139	   -0.029276	    0.145392	    0.090878	    0.236270
     6.000	0	0	    0	    0.005405	    0.015028	    0.020434	   -0.028918	   -0.012072	   -0.040990	   -0.006869	   -0.007940	   -0.014808	   -0.001679	   -0.003675	   -0.005354	   -0.019731	   -0.017710	   -0.037441	   -0.039108	   -0.019825	   -0.058933	    0.059400	    0.031794	    0.091195	    0.062970	    0.061271	    0.124241	   -0.003170	   -0.003504	   -0.006673	    0.012693	    0.005718	    0.018410	    0.015125	    0.002727	    0.017852	    0.024443	    0.007875	    0.032318	   -0.014029	   -0.011140	   -0.025169	    0.023077	    0.001921	    0.024998	    0.091048	    0.074629	    0.165677	    0.159469	    0.154241	    0.313710	   -0.015261	   -0.013717	   -0.028978	   -0.010771	   -0.012367	   -0.023138	   -0.043360	   -0.037923	   -0.081282	    0.007242	   -0.011156	   -0.003914	   -0.014930	   -0.016930	   -0.031861	    0.138224	    0.094454	    0.232678
     6.075	0	0	    0	    0.003972	    0.014107	    0.018079	   -0.030125	   -0.012255	   -0.042379	   -0.008265	   -0.007715	   -0.015980	   -0.002786	   -0.003829	   -0.006615	   -0.021431	   -0.017330	   -0.038761	   -0.041317	   -0.019616	   -0.060933	    0.055997	    0.033448	    0.089445	    0.061515	    0.061800	    0.123316	   -0.005211	   -0.003149	   -0.008360	    0.011774	    0.004608	    0.016382	    0.013552	    0.002400	    0.015951	    0.022251	    0.007471	    0.029722	   -0.017562	   -0.011553	   -0.029116	    0.023113	    0.002784	    0.025897	    0.095643	    0.069005	    0.164647	    0.159346	    0.153431	    0.312777	   -0.016846	   -0.014486	   -0.031332	   -0.012726	   -0.013489	   -0.026215	   -0.045531	   -0.038945	   -0.084476	    0.004970	   -0.013034	   -0.008064	   -0.018261	   -0.015891	   -0.034151	    0.144727	    0.090299	    0.235026
     6.150	0	0	    0	    0.002568	    0.014893	    0.017461	   -0.031536	   -0.011848	   -0.043383	   -0.009498	   -0.007513	   -0.017011	   -0.004509	   -0.003414	   -0.007923	   -0.023326	   -0.017319	   -0.040645	   -0.044143	   -0.019514	   -0.063657	    0.054016	    0.031417	    0.085433	    0.060381	    0.061745	    0.122126	   -0.006428	   -0.002548	   -0.008976	    0.009078	    0.005916	    0.014994	    0.012763	    0.002010	    0.014772	    0.019567	    0.007668	    0.027235	   -0.020362	   -0.012633	   -0.032995	    0.022457	   -0.000153	    0.022303	    0.091899	    0.071661	    0.163560	    0.158049	    0.153788	    0.311837	   -0.019994	   -0.012743	   -0.032737	   -0.015792	   -0.012881	   -0.028673	   -0.047874	   -0.039286	   -0.087160	    0.000699	   -0.012894	   -0.012195	   -0.021560	   -0.015790	   -0.037350	    0.138839	    0.092617	    0.231456
     6.225	0	0	    0	    0.001177	    0.015042	    0.016220	   -0.031111	   -0.013594	   -0.044705	   -0.009701	   -0.008567	   -0.018269	   -0.004913	   -0.003976	   -0.008889	   -0.024511	   -0.017871	   -0.042382	   -0.045274	   -0.020867	   -0.066141	    0.057388	    0.022851	    0.080238	    0.060180	    0.060087	    0.120267	   -0.007133	   -0.002852	   -0.009986	    0.008486	    0.004588	    0.013075	    0.011710	    0.002371	    0.014081	    0.017975	    0.006234	    0.024209	   -0.023556	   -0.012600	   -0.036157	    0.020349	   -0.002991	    0.017359	    0.088751	    0.071468	    0.160219	    0.157210	    0.153475	    0.310685	   -0.020315	   -0.013369	   -0.033685	   -0.017743	   -0.013811	   -0.031554	   -0.050465	   -0.039981	   -0.090446	   -0.003269	   -0.013023	   -0.016293	   -0.024144	   -0.016305	   -0.040449	    0.139713	    0.087956	    0.227669
     6.300	0	0	    0	    0.001076	    0.013900	    0.014976	   -0.029906	   -0.014066	   -0.043972	   -0.008611	   -0.008509	   -0.017121	   -0.005888	   -0.003525	   -0.009413	   -0.025482	   -0.018507	   -0.043989	   -0.043406	   -0.022992	   -0.066397	    0.059597	    0.024805	    0.084402	    0.059887	    0.059415	    0.119302	   -0.006958	   -0.004191	   -0.011149	    0.011588	    0.003749	    0.015337	    0.014139	    0.002093	    0.016232	    0.016464	    0.006636	    0.023100	   -0.023284	   -0.014641	   -0.037924	    0.024028	   -0.002330	    0.021698	    0.092586	    0.068489	    0.161075	    0.157014	    0.152442	    0.309456	   -0.019063	   -0.015309	   -0.034372	   -0.010993	   -0.015448	   -0.026442	   -0.044468	   -0.041539	   -0.086007	   -0.001636	   -0.015839	   -0.017474	   -0.023709	   -0.017960	   -0.041669	    0.140403	    0.091893	    0.232296
     6.375	0	0	    0	    0.004166	    0.014141	    0.018308	   -0.025716	   -0.013298	   -0.039014	   -0.005003	   -0.007833	   -0.012836	   -0.001914	   -0.004493	   -0.006407	   -0.020400	   -0.019208	   -0.039607	   -0.037143	   -0.020846	   -0.057989	    0.065947	    0.029885	    0.095832	    0.061053	    0.059839	    0.120892	   -0.002512	   -0.003137	   -0.005649	    0.016788	    0.004366	    0.021153	    0.017383	    0.002998	    0.020381	    0.023666	    0.005776	    0.029442	   -0.010925	   -0.013028	   -0.023953	    0.033692	   -0.002474	    0.031218	    0.092909	    0.070679	    0.163588	    0.159224	    0.152832	    0.312057	   -0.014500	   -0.012601	   -0.027102	   -0.005321	   -0.012774	   -0.018095	   -0.038016	   -0.038074	   -0.076089	    0.010570	   -0.012750	   -0.002180	   -0.012724	   -0.016100	   -0.028824	    0.139925	    0.095229	    0.235154
     6.450	0	0	    0	    0.004496	    0.016026	    0.020522	   -0.024827	   -0.012817	   -0.037644	   -0.004670	   -0.007769	   -0.012439	   -0.000682	   -0.004606	   -0.005288	   -0.018366	   -0.017293	   -0.035659	   -0.035446	   -0.020554	   -0.056000	    0.069474	    0.030370	    0.099844	    0.062185	    0.059147	    0.121332	   -0.002051	   -0.001914	   -0.003965	    0.016715	    0.005431	    0.022146	    0.017176	    0.002356	    0.019532	    0.026797	    0.007284	    0.034082	   -0.009308	   -0.009964	   -0.019272	    0.033039	   -0.001855	    0.031184	    0.096255	    0.068323	    0.164578	    0.159090	    0.153869	    0.312960	   -0.012292	   -0.012703	   -0.024995	   -0.004894	   -0.012358	   -0.017251	   -0.037171	   -0.037878	   -0.075049	    0.013399	   -0.011587	    0.001812	   -0.010760	   -0.014792	   -0.025552	    0.144642	    0.089831	    0.234473
     6.525	0	0	    0	    0.005304	    0.015445	    0.020749	   -0.025945	   -0.011792	   -0.037737	   -0.005547	   -0.007529	   -0.013076	   -0.001014	   -0.004392	   -0.005406	   -0.017938	   -0.016993	   -0.034930	   -0.036531	   -0.019727	   -0.056258	    0.061148	    0.034161	    0.095309	    0.060760	    0.059910	    0.120670	   -0.001920	   -0.001430	   -0.003350	    0.015883	    0.005612	    0.021495	    0.016695	    0.001516	    0.018211	    0.027432	    0.006892	    0.034324	   -0.009665	   -0.009805	   -0.019469	    0.029527	   -0.001593	    0.027934	    0.095463	    0.069511	    0.164973	    0.158930	    0.153374	    0.312303	   -0.013204	   -0.011986	   -0.025190	   -0.006697	   -0.011569	   -0.018266	   -0.038409	   -0.037823	   -0.076232	    0.012590	   -0.011216	    0.001374	   -0.010784	   -0.015675	   -0.026459	    0.139472	    0.092364	    0.231835
     6.600	0	0	    0	    0.004949	    0.014860	    0.019808	   -0.025119	   -0.012974	   -0.038093	   -0.004389	   -0.008976	   -0.013364	   -0.001712	   -0.005025	   -0.006737	   -0.018689	   -0.017208	   -0.035897	   -0.035451	   -0.021612	   -0.057063	    0.065468	    0.026590	    0.092058	    0.059373	    0.061213	    0.120586	   -0.002196	   -0.002138	   -0.004334	    0.015837	    0.004928	    0.020765	    0.015402	    0.001379	    0.016781	    0.025405	    0.006780	    0.032186	   -0.010708	   -0.010250	   -0.020958	    0.032874	   -0.003571	    0.029303	    0.092203	    0.069656	    0.161858	    0.158531	    0.154047	    0.312578	   -0.013304	   -0.012765	   -0.026069	   -0.006290	   -0.012612	   -0.018902	   -0.038705	   -0.038404	   -0.077109	    0.010628	   -0.011600	   -0.000972	   -0.013355	   -0.014245	   -0.027600	    0.139855	    0.093465	    0.233319
     6.675	0	0	    0	    0.004366	    0.016177	    0.020543	   -0.025343	   -0.012325	   -0.037668	   -0.005423	   -0.008113	   -0.013536	   -0.001751	   -0.005378	   -0.007129	   -0.017865	   -0.017117	   -0.034981	   -0.035142	   -0.021384	   -0.056526	    0.068913	    0.025787	    0.094701	    0.060603	    0.060386	    0.120989	   -0.001930	   -0.002245	   -0.004175	    0.016794	    0.004226	    0.021020	    0.015406	    0.000629	    0.016034	    0.026603	    0.006930	    0.033532	   -0.010423	   -0.009951	   -0.020374	    0.030607	    0.000116	    0.030722	    0.092845	    0.070124	    0.162968	    0.159457	    0.153170	    0.312627	   -0.013076	   -0.013090	   -0.026166	   -0.007150	   -0.012478	   -0.019628	   -0.039400	   -0.038300	   -0.077700	    0.011523	   -0.011465	    0.000057	   -0.012543	   -0.014509	   -0.027052	    0.143388	    0.090647	    0.234035
     6.750	0	0	    0	    0.002483	    0.016938	    0.019421	   -0.026390	   -0.012650	   -0.039039	   -0.006453	   -0.008131	   -0.014584	   -0.002638	   -0.004911	   -0.007549	   -0.018741	   -0.016932	   -0.035673	   -0.037415	   -0.020942	   -0.058357	    0.059215	    0.031432	    0.090647	    0.059038	    0.060269	    0.119307	   -0.002876	   -0.002105	   -0.004981	    0.015338	    0.004088	    0.019425	    0.013806	    0.000397	    0.014203	    0.024237	    0.007836	    0.032073	   -0.012236	   -0.010138	   -0.022374	    0.027856	   -0.001115	    0.026742	    0.090624	    0.070141	    0.160765	    0.158579	    0.153268	    0.311847	   -0.013471	   -0.013674	   -0.027145	   -0.009030	   -0.013064	   -0.022094	   -0.041694	   -0.038297	   -0.079991	    0.009935	   -0.012446	   -0.002511	   -0.014588	   -0.014663	   -0.029250	    0.137804	    0.090944	    0.228748
     6.825	0	0	    0	    0.003131	    0.014764	    0.017895	   -0.027754	   -0.012255	   -0.040009	   -0.007042	   -0.008456	   -0.015498	   -0.003241	   -0.005183	   -0.008424	   -0.019482	   -0.017587	   -0.037069	   -0.039854	   -0.020590	   -0.060444	    0.058457	    0.030071	    0.088528	    0.058210	    0.059806	    0.118017	   -0.003381	   -0.002451	   -0.005833	    0.012972	    0.004675	    0.017647	    0.012985	    0.000317	    0.013302	    0.023935	    0.006073	    0.030008	   -0.015434	   -0.010369	   -0.025803	    0.026532	   -0.002410	    0.024122	    0.090902	    0.069596	    0.160499	    0.157480	    0.153651	    0.311130	   -0.014785	   -0.013732	   -0.028517	   -0.011364	   -0.013343	   -0.024707	   -0.044173	   -0.038822	   -0.082995	    0.006199	   -0.011571	   -0.005373	   -0.015536	   -0.016375	   -0.031911	    0.139412	    0.089653	    0.229065
     6.900	0	0	    0	    0.001959	    0.015130	    0.017088	   -0.029000	   -0.012547	   -0.041547	   -0.008436	   -0.008357	   -0.016793	   -0.004543	   -0.005074	   -0.009617	   -0.021724	   -0.017071	   -0.038796	   -0.041728	   -0.020907	   -0.062635	    0.058952	    0.028502	    0.087454	    0.057161	    0.059716	    0.116877	   -0.005147	   -0.002370	   -0.007517	    0.012138	    0.003765	    0.015904	    0.011931	   -0.000535	    0.011396	    0.020279	    0.007104	    0.027383	   -0.018514	   -0.010682	   -0.029195	    0.025758	   -0.001392	    0.024366	    0.090182	    0.068154	    0.158335	    0.156459	    0.153507	    0.309965	   -0.017285	   -0.013562	   -0.030847	   -0.013580	   -0.013884	   -0.027464	   -0.046496	   -0.039350	   -0.085847	    0.003180	   -0.013037	   -0.009857	   -0.018033	   -0.016139	   -0.034172	    0.136191	    0.091184	    0.227375
     6.975	0	0	    0	    0.001031	    0.014381	    0.015411	   -0.028956	   -0.013627	   -0.042583	   -0.008765	   -0.009038	   -0.017803	   -0.005652	   -0.005299	   -0.010951	   -0.023005	   -0.017474	   -0.040479	   -0.043534	   -0.021101	   -0.064635	    0.059152	    0.024414	    0.083566	    0.057569	    0.058401	    0.115970	   -0.006057	   -0.002766	   -0.008823	    0.010439	    0.003758	    0.014196	    0.010225	   -0.000333	    0.009893	    0.018989	    0.005861	    0.024850	   -0.021420	   -0.011631	   -0.033051	    0.026346	   -0.004261	    0.022084	    0.090438	    0.066047	    0.156485	    0.155576	    0.153120	    0.308696	   -0.018400	   -0.014117	   -0.032517	   -0.015126	   -0.014753	   -0.029879	   -0.048422	   -0.040211	   -0.088633	   -0.000451	   -0.012847	   -0.013298	   -0.021491	   -0.015655	   -0.037146	    0.138986	    0.087967	    0.226953
     7.050	0	0	    0	    0.001571	    0.012927	    0.014498	   -0.031529	   -0.012427	   -0.043956	   -0.010599	   -0.008086	   -0.018686	   -0.005637	   -0.005849	   -0.011485	   -0.024629	   -0.017437	   -0.042066	   -0.046470	   -0.021397	   -0.067867	    0.055519	    0.026375	    0.081893	    0.057427	    0.058269	    0.115695	   -0.007799	   -0.001948	   -0.009746	    0.009137	    0.003842	    0.012978	    0.008899	   -0.000261	    0.008639	    0.018268	    0.004662	    0.022929	   -0.025207	   -0.011436	   -0.036643	    0.022469	   -0.003112	    0.019357	    0.085897	    0.069575	    0.155472	    0.154117	    0.153491	    0.307608	   -0.020440	   -0.013697	   -0.034138	   -0.017378	   -0.015022	   -0.032400	   -0.051270	   -0.040374	   -0.091644	   -0.004366	   -0.013093	   -0.017459	   -0.025384	   -0.015099	   -0.040483	    0.131645	    0.091283	    0.222928
     7.125	0	0	    0	   -0.001456	    0.014522	    0.013066	   -0.031065	   -0.013374	   -0.044438	   -0.010159	   -0.009367	   -0.019526	   -0.007778	   -0.004944	   -0.012722	   -0.025931	   -0.017664	   -0.043595	   -0.045745	   -0.022919	   -0.068664	    0.056188	    0.024327	    0.080515	    0.056698	    0.057273	    0.113972	   -0.007889	   -0.003133	   -0.011023	    0.010240	    0.002480	    0.012719	    0.009930	   -0.000824	    0.009106	    0.015214	    0.005717	    0.020931	   -0.025790	   -0.013626	   -0.039416	    0.022070	   -0.004703	    0.017368	    0.087588	    0.067041	    0.154629	    0.152645	    0.153618	    0.306263	   -0.020570	   -0.014705	   -0.035275	   -0.013559	   -0.016335	   -0.029894	   -0.047856	   -0.042043	   -0.089899	   -0.005893	   -0.014643	   -0.020536	   -0.025168	   -0.017565	   -0.042733	    0.134741	    0.086291	    0.221032
     7.200	0	0	    0	    0.000277	    0.015511	    0.015788	   -0.025251	   -0.013496	   -0.038747	   -0.006419	   -0.008504	   -0.014923	   -0.004995	   -0.005801	   -0.010796	   -0.022236	   -0.018738	   -0.040974	   -0.038277	   -0.022459	   -0.060736	    0.064782	    0.028684	    0.093467	    0.057413	    0.057399	    0.114812	   -0.001900	   -0.003891	   -0.005791	    0.016267	    0.003159	    0.019426	    0.014089	   -0.000593	    0.013496	    0.021086	    0.003932	    0.025019	   -0.013212	   -0.013509	   -0.026721	    0.028844	   -0.001129	    0.027716	    0.088977	    0.067202	    0.156179	    0.156355	    0.152000	    0.308355	   -0.013538	   -0.014720	   -0.028257	   -0.006159	   -0.013963	   -0.020121	   -0.038921	   -0.039356	   -0.078277	    0.008807	   -0.015589	   -0.006782	   -0.013451	   -0.018218	   -0.031669	    0.137643	    0.086966	    0.224609
     7.275	0	0	    0	    0.003600	    0.013752	    0.017352	   -0.024632	   -0.013137	   -0.037768	   -0.005561	   -0.008427	   -0.013988	   -0.002337	   -0.006154	   -0.008491	   -0.018609	   -0.017309	   -0.035918	   -0.036493	   -0.021103	   -0.057596	    0.063533	    0.027307	    0.090840	    0.058249	    0.056320	    0.114569	    0.000098	   -0.004114	   -0.004017	    0.016596	    0.004211	    0.020807	    0.013824	   -0.000297	    0.013527	    0.026031	    0.004751	    0.030782	   -0.009745	   -0.010402	   -0.020147	    0.031099	   -0.000247	    0.030852	    0.088220	    0.066934	    0.155154	    0.157525	    0.151897	    0.309422	   -0.012321	   -0.013175	   -0.025496	   -0.005584	   -0.012892	   -0.018476	   -0.038423	   -0.037873	   -0.076296	    0.012320	   -0.012549	   -0.000229	   -0.010781	   -0.015840	   -0.026621	    0.135858	    0.090483	    0.226341
     7.350	0	0	    0	    0.003067	    0.015621	    0.018688	   -0.025647	   -0.012176	   -0.037822	   -0.005693	   -0.008548	   -0.014241	   -0.002492	   -0.005990	   -0.008482	   -0.018439	   -0.016692	   -0.035131	   -0.037652	   -0.020095	   -0.057747	    0.061692	    0.027686	    0.089378	    0.057240	    0.058438	    0.115678	   -0.000828	   -0.003377	   -0.004205	    0.016537	    0.004350	    0.020888	    0.014019	   -0.001191	    0.012828	    0.024723	    0.006405	    0.031129	   -0.009595	   -0.010336	   -0.019931	    0.029793	   -0.003968	    0.025825	    0.089524	    0.064276	    0.153800	    0.157019	    0.152166	    0.309184	   -0.011182	   -0.014554	   -0.025736	   -0.006047	   -0.013305	   -0.019352	   -0.039561	   -0.037929	   -0.077490	    0.012394	   -0.013293	   -0.000899	   -0.011778	   -0.015598	   -0.027376	    0.137954	    0.085587	    0.223541
     7.425	0	0	    0	    0.002310	    0.015048	    0.017358	   -0.026246	   -0.012159	   -0.038406	   -0.005612	   -0.009357	   -0.014969	   -0.003067	   -0.005853	   -0.008919	   -0.018472	   -0.017046	   -0.035518	   -0.038695	   -0.019987	   -0.058682	    0.064103	    0.026283	    0.090386	    0.056808	    0.058008	    0.114816	   -0.001621	   -0.003222	   -0.004843	    0.015639	    0.004769	    0.020408	    0.013658	   -0.001344	    0.012314	    0.025378	    0.005578	    0.030955	   -0.011709	   -0.010799	   -0.022509	    0.028151	   -0.001068	    0.027083	    0.087690	    0.068433	    0.156124	    0.156770	    0.152304	    0.309074	   -0.011735	   -0.014169	   -0.025904	   -0.005965	   -0.013750	   -0.019714	   -0.039376	   -0.038669	   -0.078045	    0.011082	   -0.012570	   -0.001487	   -0.013382	   -0.016362	   -0.029743	    0.137020	    0.087215	    0.224235
     7.500	0	0	    0	    0.003822	    0.013446	    0.017267	   -0.026482	   -0.011335	   -0.037817	   -0.006280	   -0.008320	   -0.014600	   -0.002462	   -0.006491	   -0.008953	   -0.017933	   -0.017291	   -0.035224	   -0.039134	   -0.019006	   -0.058140	    0.055372	    0.035229	    0.090602	    0.058845	    0.054748	    0.113593	   -0.001803	   -0.002659	   -0.004462	    0.015527	    0.005031	    0.020558	    0.013152	   -0.001468	    0.011684	    0.025779	    0.005586	    0.031365	   -0.011273	   -0.010875	   -0.022147	    0.029807	   -0.000279	    0.029528	    0.085838	    0.069025	    0.154863	    0.156509	    0.152020	    0.308529	   -0.012374	   -0.013698	   -0.026072	   -0.007086	   -0.013018	   -0.020104	   -0.039897	   -0.037989	   -0.077887	    0.010541	   -0.011226	   -0.000686	   -0.014236	   -0.015521	   -0.029757	    0.133611	    0.092666	    0.226277
     7.575	0	0	    0	    0.002477	    0.015193	    0.017670	   -0.026049	   -0.012578	   -0.038627	   -0.006421	   -0.009164	   -0.015585	   -0.003842	   -0.005515	   -0.009357	   -0.018683	   -0.016637	   -0.035321	   -0.039797	   -0.019254	   -0.059050	    0.061013	    0.025658	    0.086671	    0.054672	    0.059369	    0.114041	   -0.001898	   -0.002897	   -0.004795	    0.015000	    0.003877	    0.018877	    0.012076	   -0.001870	    0.010206	    0.024865	    0.006185	    0.031050	   -0.013591	   -0.009873	   -0.023463	    0.027259	   -0.001612	    0.025647	    0.089423	    0.065455	    0.154878	    0.155759	    0.151994	    0.307753	   -0.013423	   -0.013663	   -0.027086	   -0.008419	   -0.013482	   -0.021901	   -0.041274	   -0.038109	   -0.079383	    0.009278	   -0.011123	   -0.001845	   -0.015877	   -0.015546	   -0.031423	    0.131959	    0.088655	    0.220614
     7.650	0	0	    0	    0.002152	    0.013980	    0.016132	   -0.027423	   -0.012284	   -0.039707	   -0.008040	   -0.008784	   -0.016824	   -0.004035	   -0.006736	   -0.010770	   -0.019770	   -0.016828	   -0.036598	   -0.040397	   -0.021274	   -0.061670	    0.054312	    0.029861	    0.084173	    0.056489	    0.056477	    0.112966	   -0.002883	   -0.002959	   -0.005841	    0.013381	    0.003972	    0.017353	    0.011172	   -0.002422	    0.008749	    0.022758	    0.005991	    0.028749	   -0.015855	   -0.010826	   -0.026681	    0.023966	   -0.001925	    0.022041	    0.089524	    0.064276	    0.153800	    0.155216	    0.151520	    0.306736	   -0.013277	   -0.014735	   -0.028012	   -0.010146	   -0.014393	   -0.024539	   -0.044116	   -0.038489	   -0.082605	    0.006936	   -0.012226	   -0.005290	   -0.016542	   -0.017935	   -0.034477	    0.137215	    0.084052	    0.221267
     7.725	0	0	    0	    0.000893	    0.013463	    0.014356	   -0.028017	   -0.012991	   -0.041008	   -0.008208	   -0.009167	   -0.017375	   -0.005129	   -0.006289	   -0.011417	   -0.021511	   -0.016839	   -0.038350	   -0.041975	   -0.021313	   -0.063288	    0.057006	    0.024213	    0.081219	    0.055635	    0.055491	    0.111126	   -0.003286	   -0.004299	   -0.007586	    0.012973	    0.003309	    0.016282	    0.010128	   -0.002372	    0.007755	    0.021757	    0.004493	    0.026251	   -0.019300	   -0.010709	   -0.030009	    0.019844	    0.002445	    0.022289	    0.082403	    0.068960	    0.151363	    0.154222	    0.151592	    0.305814	   -0.016069	   -0.014168	   -0.030237	   -0.013032	   -0.014298	   -0.027330	   -0.046786	   -0.039392	   -0.086179	    0.002773	   -0.011998	   -0.009225	   -0.019307	   -0.016094	   -0.035401	    0.131943	    0.090123	    0.222066
     7.800	0	0	    0	   -0.000325	    0.014418	    0.014093	   -0.030213	   -0.011799	   -0.042012	   -0.009463	   -0.009077	   -0.018540	   -0.005710	   -0.006364	   -0.012073	   -0.022790	   -0.016993	   -0.039783	   -0.045206	   -0.020395	   -0.065600	    0.049276	    0.031661	    0.080937	    0.054024	    0.057004	    0.111027	   -0.004327	   -0.004221	   -0.008549	    0.011649	    0.002973	    0.014621	    0.009023	   -0.002672	    0.006351	    0.019324	    0.005424	    0.024748	   -0.021650	   -0.011615	   -0.033265	    0.020165	    0.001636	    0.021801	    0.087905	    0.063504	    0.151409	    0.153438	    0.151539	    0.304977	   -0.016485	   -0.015550	   -0.032036	   -0.014422	   -0.015448	   -0.029871	   -0.048963	   -0.040079	   -0.089043	   -0.000370	   -0.013581	   -0.013951	   -0.021247	   -0.016855	   -0.038101	    0.136554	    0.084437	    0.220991
     7.875	0	0	    0	   -0.003215	    0.015486	    0.012271	   -0.031207	   -0.012333	   -0.043541	   -0.010421	   -0.009500	   -0.019922	   -0.007363	   -0.006132	   -0.013495	   -0.024443	   -0.017131	   -0.041574	   -0.046272	   -0.021528	   -0.067800	    0.050539	    0.024973	    0.075512	    0.052654	    0.057781	    0.110435	   -0.005366	   -0.004111	   -0.009477	    0.009822	    0.003332	    0.013154	    0.007150	   -0.002978	    0.004172	    0.016647	    0.005672	    0.022319	   -0.024487	   -0.011967	   -0.036454	    0.022437	   -0.003667	    0.018771	    0.086252	    0.064026	    0.150279	    0.152843	    0.152091	    0.304935	   -0.019050	   -0.012927	   -0.031977	   -0.016442	   -0.015559	   -0.032000	   -0.051610	   -0.040394	   -0.092004	   -0.003795	   -0.013271	   -0.017066	   -0.023754	   -0.016499	   -0.040253	    0.130273	    0.087307	    0.217580
     7.950	0	0	    0	   -0.003255	    0.014271	    0.011016	   -0.031806	   -0.012452	   -0.044258	   -0.011427	   -0.009832	   -0.021259	   -0.008946	   -0.006215	   -0.015161	   -0.025778	   -0.017639	   -0.043417	   -0.047803	   -0.021671	   -0.069474	    0.051233	    0.022239	    0.073473	    0.053636	    0.055283	    0.108919	   -0.007828	   -0.003273	   -0.011100	    0.010045	    0.001724	    0.011769	    0.007469	   -0.003981	    0.003488	    0.014764	    0.004629	    0.019393	   -0.027322	   -0.012936	   -0.040258	    0.023408	   -0.002976	    0.020433	    0.085502	    0.062495	    0.147996	    0.152012	    0.151603	    0.303615	   -0.020183	   -0.015300	   -0.035483	   -0.015035	   -0.017109	   -0.032144	   -0.050435	   -0.041941	   -0.092375	   -0.006493	   -0.015572	   -0.022065	   -0.026173	   -0.017070	   -0.043242	    0.129323	    0.087078	    0.216402
     8.025	0	0	    0	    0.000005	    0.013157	    0.013162	   -0.024882	   -0.014475	   -0.039357	   -0.006798	   -0.010851	   -0.017649	   -0.007167	   -0.007172	   -0.014339	   -0.023485	   -0.018546	   -0.042032	   -0.040169	   -0.021915	   -0.062084	    0.062299	    0.025063	    0.087362	    0.053700	    0.056309	    0.110009	   -0.002893	   -0.003861	   -0.006754	    0.015050	    0.002511	    0.017562	    0.010301	   -0.004253	    0.006048	    0.017604	    0.004289	    0.021892	   -0.015540	   -0.014633	   -0.030173	    0.030716	   -0.002019	    0.028697	    0.086465	    0.064225	    0.150690	    0.154456	    0.150868	    0.305324	   -0.013241	   -0.016654	   -0.029895	   -0.006997	   -0.015325	   -0.022322	   -0.040420	   -0.040049	   -0.080469	    0.005664	   -0.015989	   -0.010325	   -0.016480	   -0.017775	   -0.034255	    0.135316	    0.084933	    0.220250
     8.100	0	0	    0	    0.000497	    0.015207	    0.015704	   -0.024263	   -0.013055	   -0.037318	   -0.006454	   -0.010147	   -0.016601	   -0.005122	   -0.005911	   -0.011033	   -0.019468	   -0.017051	   -0.036518	   -0.037226	   -0.021119	   -0.058344	    0.068704	    0.019907	    0.088611	    0.053994	    0.056506	    0.110500	   -0.000304	   -0.003350	   -0.003655	    0.017897	    0.002295	    0.020192	    0.009878	   -0.004479	    0.005399	    0.024081	    0.005090	    0.029171	   -0.011401	   -0.009688	   -0.021089	    0.033038	    0.000437	    0.033476	    0.086669	    0.064282	    0.150952	    0.155375	    0.151393	    0.306768	   -0.010852	   -0.014439	   -0.025291	   -0.005790	   -0.013913	   -0.019702	   -0.038903	   -0.038072	   -0.076975	    0.010956	   -0.012262	   -0.001306	   -0.013402	   -0.013663	   -0.027065	    0.140653	    0.081519	    0.222172
     8.175	0	0	    0	    0.003055	    0.013365	    0.016420	   -0.025727	   -0.011275	   -0.037002	   -0.007096	   -0.009869	   -0.016966	   -0.003193	   -0.008451	   -0.011644	   -0.018042	   -0.016902	   -0.034944	   -0.038408	   -0.019447	   -0.057855	    0.053257	    0.034616	    0.087872	    0.054965	    0.055764	    0.110729	   -0.001363	   -0.002090	   -0.003452	    0.015826	    0.003632	    0.019458	    0.009257	   -0.005411	    0.003846	    0.025432	    0.005155	    0.030587	   -0.010679	   -0.009390	   -0.020069	    0.030189	    0.001193	    0.031382	    0.086796	    0.064800	    0.151596	    0.155517	    0.151179	    0.306697	   -0.011323	   -0.014316	   -0.025638	   -0.006404	   -0.013815	   -0.020218	   -0.039353	   -0.037870	   -0.077223	    0.009363	   -0.010097	   -0.000734	   -0.012154	   -0.015149	   -0.027303	    0.135940	    0.083955	    0.219896
     8.250	0	0	    0	    0.002721	    0.013076	    0.015798	   -0.024791	   -0.012530	   -0.037321	   -0.006964	   -0.010850	   -0.017814	   -0.004895	   -0.007660	   -0.012555	   -0.018287	   -0.016847	   -0.035134	   -0.038941	   -0.019937	   -0.058878	    0.059355	    0.026757	    0.086112	    0.054823	    0.055998	    0.110821	   -0.001706	   -0.002521	   -0.004227	    0.016398	    0.002006	    0.018404	    0.008050	   -0.006785	    0.001265	    0.023148	    0.005741	    0.028890	   -0.012708	   -0.008049	   -0.020756	    0.031440	    0.000359	    0.031800	    0.085062	    0.065491	    0.150553	    0.153887	    0.152811	    0.306698	   -0.011852	   -0.014889	   -0.026741	   -0.006472	   -0.014371	   -0.020843	   -0.039499	   -0.038170	   -0.077669	    0.006915	   -0.010137	   -0.003222	   -0.014776	   -0.013115	   -0.027891	    0.132797	    0.086273	    0.219070
     8.325	0	0	    0	    0.002096	    0.013538	    0.015635	   -0.024777	   -0.012179	   -0.036957	   -0.006956	   -0.010788	   -0.017744	   -0.004975	   -0.007601	   -0.012576	   -0.018367	   -0.016267	   -0.034634	   -0.038061	   -0.019474	   -0.057535	    0.057020	    0.031950	    0.088970	    0.054097	    0.055146	    0.109243	   -0.000492	   -0.003834	   -0.004326	    0.016273	    0.002379	    0.018652	    0.007704	   -0.007225	    0.000479	    0.023496	    0.005179	    0.028675	   -0.011804	   -0.007979	   -0.019783	    0.030035	    0.002167	    0.032203	    0.088006	    0.063042	    0.151048	    0.154438	    0.151585	    0.306023	   -0.012157	   -0.014709	   -0.026866	   -0.006081	   -0.014086	   -0.020168	   -0.039566	   -0.037478	   -0.077044	    0.008882	   -0.012162	   -0.003280	   -0.013755	   -0.014514	   -0.028269	    0.131781	    0.084134	    0.215915
     8.400	0	0	    0	    0.000516	    0.015209	    0.015725	   -0.024752	   -0.012343	   -0.037095	   -0.007508	   -0.010886	   -0.018394	   -0.004421	   -0.008137	   -0.012558	   -0.018073	   -0.016472	   -0.034545	   -0.039994	   -0.018721	   -0.058715	    0.058283	    0.026474	    0.084758	    0.054015	    0.055047	    0.109061	   -0.000322	   -0.004086	   -0.004408	    0.015373	    0.002174	    0.017546	    0.006388	   -0.007233	   -0.000844	    0.023929	    0.004821	    0.028750	   -0.012351	   -0.008565	   -0.020916	    0.029296	    0.006558	    0.035854	    0.085168	    0.064317	    0.149485	    0.154669	    0.151380	    0.306049	   -0.012244	   -0.015295	   -0.027539	   -0.008140	   -0.014183	   -0.022323	   -0.041353	   -0.037539	   -0.078893	    0.006611	   -0.011033	   -0.004422	   -0.013042	   -0.014856	   -0.027898	    0.128732	    0.088649	    0.217382
     8.475	0	0	    0	    0.001361	    0.013634	    0.014996	   -0.025890	   -0.012527	   -0.038417	   -0.008338	   -0.011189	   -0.019527	   -0.005003	   -0.008825	   -0.013828	   -0.019464	   -0.016017	   -0.035481	   -0.040827	   -0.019503	   -0.060329	    0.054264	    0.026095	    0.080358	    0.053221	    0.055319	    0.108540	   -0.003111	   -0.002608	   -0.005719	    0.014011	    0.001531	    0.015542	    0.005453	   -0.007617	   -0.002164	    0.020927	    0.005410	    0.026337	   -0.015622	   -0.008494	   -0.024116	    0.030818	    0.001134	    0.031952	    0.082106	    0.064133	    0.146239	    0.153802	    0.151095	    0.304897	   -0.014558	   -0.014726	   -0.029284	   -0.009876	   -0.014554	   -0.024430	   -0.043679	   -0.037489	   -0.081167	    0.003681	   -0.012325	   -0.008643	   -0.016307	   -0.014497	   -0.030804	    0.127151	    0.088577	    0.215728
     8.550	0	0	    0	    0.000919	    0.012322	    0.013240	   -0.026339	   -0.013184	   -0.039523	   -0.009091	   -0.011866	   -0.020957	   -0.006888	   -0.008164	   -0.015052	   -0.020760	   -0.016599	   -0.037359	   -0.043062	   -0.019887	   -0.062948	    0.051553	    0.025625	    0.077178	    0.053382	    0.053836	    0.107218	   -0.002719	   -0.004187	   -0.006906	    0.013570	    0.000645	    0.014214	    0.004962	   -0.008943	   -0.003982	    0.019686	    0.004176	    0.023863	   -0.017783	   -0.010022	   -0.027805	    0.029138	   -0.001081	    0.028057	    0.081789	    0.061741	    0.143529	    0.152819	    0.150988	    0.303807	   -0.016148	   -0.014580	   -0.030728	   -0.011201	   -0.015096	   -0.026297	   -0.044902	   -0.038473	   -0.083374	    0.000987	   -0.012906	   -0.011919	   -0.017859	   -0.015951	   -0.033810	    0.134155	    0.080027	    0.214182
     8.625	0	0	    0	   -0.002799	    0.015624	    0.012825	   -0.027887	   -0.012470	   -0.040356	   -0.010428	   -0.010894	   -0.021322	   -0.008026	   -0.007386	   -0.015411	   -0.022109	   -0.016522	   -0.038631	   -0.044446	   -0.020595	   -0.065041	    0.051965	    0.023557	    0.075522	    0.050421	    0.056436	    0.106857	   -0.002290	   -0.005559	   -0.007849	    0.011773	    0.000548	    0.012321	    0.003467	   -0.007940	   -0.004473	    0.015986	    0.005297	    0.021284	   -0.020412	   -0.010423	   -0.030836	    0.026529	    0.000981	    0.027509	    0.080386	    0.063278	    0.143664	    0.152837	    0.150254	    0.303091	   -0.016311	   -0.016720	   -0.033032	   -0.012866	   -0.015218	   -0.028083	   -0.046867	   -0.038828	   -0.085695	   -0.001148	   -0.013928	   -0.015076	   -0.019994	   -0.015647	   -0.035640	    0.128006	    0.084765	    0.212771
     8.700	0	0	    0	   -0.003580	    0.015049	    0.011469	   -0.029275	   -0.012769	   -0.042045	   -0.011763	   -0.010513	   -0.022277	   -0.008902	   -0.007627	   -0.016529	   -0.023849	   -0.016083	   -0.039932	   -0.047537	   -0.019938	   -0.067475	    0.048935	    0.024843	    0.073778	    0.049981	    0.055419	    0.105400	   -0.003401	   -0.006160	   -0.009561	    0.009938	    0.000531	    0.010469	    0.002315	   -0.008315	   -0.006000	    0.015197	    0.005207	    0.020404	   -0.023792	   -0.010442	   -0.034234	    0.027367	   -0.000754	    0.026613	    0.081048	    0.060782	    0.141829	    0.152137	    0.149385	    0.301523	   -0.017192	   -0.017638	   -0.034830	   -0.014675	   -0.015812	   -0.030488	   -0.049150	   -0.038468	   -0.087618	   -0.005741	   -0.012784	   -0.018526	   -0.023208	   -0.015717	   -0.038925	    0.126366	    0.082512	    0.208878
     8.775	0	0	    0	   -0.002444	    0.012820	    0.010376	   -0.027139	   -0.013431	   -0.040570	   -0.009365	   -0.012190	   -0.021555	   -0.008581	   -0.008961	   -0.017542	   -0.023717	   -0.017113	   -0.040830	   -0.044395	   -0.021107	   -0.065502	    0.055645	    0.021294	    0.076938	    0.051366	    0.053465	    0.104831	   -0.003158	   -0.005837	   -0.008995	    0.013536	   -0.000992	    0.012544	    0.005282	   -0.009535	   -0.004253	    0.014364	    0.003061	    0.017425	   -0.020515	   -0.013641	   -0.034155	    0.031470	   -0.002487	    0.028983	    0.083552	    0.059086	    0.142639	    0.152217	    0.149425	    0.301642	   -0.016259	   -0.017442	   -0.033701	   -0.008144	   -0.016797	   -0.024942	   -0.042160	   -0.039981	   -0.082140	   -0.002412	   -0.017395	   -0.019807	   -0.020753	   -0.018055	   -0.038807	    0.128892	    0.083090	    0.211982
     8.850	0	0	    0	    0.001635	    0.012450	    0.014085	   -0.024496	   -0.012506	   -0.037002	   -0.006491	   -0.011803	   -0.018294	   -0.006097	   -0.008280	   -0.014377	   -0.019366	   -0.017085	   -0.036451	   -0.038754	   -0.020266	   -0.059020	    0.062931	    0.020684	    0.083615	    0.053347	    0.053671	    0.107019	    0.000057	   -0.004349	   -0.004292	    0.016722	    0.000234	    0.016956	    0.007395	   -0.009173	   -0.001778	    0.021290	    0.003782	    0.025072	   -0.011632	   -0.010194	   -0.021827	    0.034446	    0.000619	    0.035065	    0.083533	    0.060484	    0.144017	    0.153739	    0.150379	    0.304118	   -0.011725	   -0.016146	   -0.027870	   -0.004236	   -0.014955	   -0.019191	   -0.037877	   -0.036977	   -0.074854	    0.007061	   -0.013224	   -0.006163	   -0.010588	   -0.018202	   -0.028790	    0.132215	    0.080234	    0.212449
     8.925	0	0	    0	    0.003305	    0.011661	    0.014966	   -0.024241	   -0.012603	   -0.036844	   -0.006360	   -0.011430	   -0.017791	   -0.004660	   -0.008166	   -0.012826	   -0.018124	   -0.016251	   -0.034375	   -0.038842	   -0.020186	   -0.059028	    0.058010	    0.024807	    0.082817	    0.053212	    0.053410	    0.106622	    0.000947	   -0.004294	   -0.003347	    0.016748	    0.000482	    0.017230	    0.007347	   -0.008965	   -0.001618	    0.023178	    0.003935	    0.027113	   -0.011083	   -0.009328	   -0.020411	    0.032873	    0.003002	    0.035876	    0.082401	    0.061494	    0.143894	    0.153783	    0.150764	    0.304547	   -0.010299	   -0.016973	   -0.027272	   -0.005518	   -0.013824	   -0.019342	   -0.038848	   -0.036382	   -0.075230	    0.006782	   -0.011080	   -0.004297	   -0.012351	   -0.014511	   -0.026862	    0.130801	    0.083830	    0.214631
     9.000	0	0	    0	    0.000555	    0.015357	    0.015912	   -0.024347	   -0.012665	   -0.037012	   -0.006460	   -0.011772	   -0.018233	   -0.005309	   -0.008031	   -0.013340	   -0.018719	   -0.015586	   -0.034305	   -0.039593	   -0.020139	   -0.059732	    0.058281	    0.023274	    0.081554	    0.051913	    0.054608	    0.106522	   -0.000126	   -0.003812	   -0.003938	    0.015502	    0.000289	    0.015791	    0.006991	   -0.009797	   -0.002806	    0.020941	    0.004908	    0.025849	   -0.014867	   -0.007866	   -0.022732	    0.031390	    0.001791	    0.033181	    0.086463	    0.058476	    0.144939	    0.152982	    0.151350	    0.304332	   -0.013677	   -0.014483	   -0.028160	   -0.006440	   -0.014745	   -0.021185	   -0.039766	   -0.037108	   -0.076874	    0.004311	   -0.011560	   -0.007249	   -0.015131	   -0.014735	   -0.029866	    0.131382	    0.082276	    0.213657
     9.075	0	0	    0	   -0.000035	    0.015742	    0.015707	   -0.025138	   -0.011710	   -0.036847	   -0.006575	   -0.011716	   -0.018292	   -0.005403	   -0.008511	   -0.013914	   -0.018416	   -0.016203	   -0.034618	   -0.040428	   -0.018555	   -0.058983	    0.055029	    0.027926	    0.082955	    0.051085	    0.055803	    0.106889	   -0.000065	   -0.004011	   -0.004076	    0.016398	   -0.000285	    0.016113	    0.006477	   -0.009337	   -0.002860	    0.020678	    0.004234	    0.024912	   -0.014252	   -0.010377	   -0.024629	    0.027805	    0.005475	    0.033281	    0.084522	    0.059808	    0.144331	    0.153929	    0.150181	    0.304109	   -0.012127	   -0.017631	   -0.029758	   -0.005563	   -0.014937	   -0.020500	   -0.039227	   -0.036823	   -0.076050	    0.003977	   -0.011096	   -0.007120	   -0.015206	   -0.016408	   -0.031614	    0.129191	    0.083687	    0.212878
     9.150	0	0	    0	    0.001067	    0.014676	    0.015743	   -0.025588	   -0.011744	   -0.037331	   -0.007326	   -0.010565	   -0.017891	   -0.005651	   -0.008485	   -0.014136	   -0.018411	   -0.015645	   -0.034056	   -0.041021	   -0.018573	   -0.059593	    0.052921	    0.026493	    0.079413	    0.052354	    0.054111	    0.106465	    0.001151	   -0.006534	   -0.005383	    0.015093	    0.000432	    0.015525	    0.006415	   -0.009763	   -0.003348	    0.020357	    0.004359	    0.024716	   -0.014197	   -0.009515	   -0.023711	    0.027827	    0.003884	    0.031711	    0.077692	    0.065189	    0.142881	    0.154010	    0.150278	    0.304288	   -0.012917	   -0.017781	   -0.030698	   -0.006479	   -0.014232	   -0.020711	   -0.041266	   -0.036192	   -0.077458	    0.004472	   -0.012509	   -0.008037	   -0.014137	   -0.017004	   -0.031140	    0.124854	    0.084337	    0.209191
     9.225	0	0	    0	    0.000560	    0.015912	    0.016472	   -0.025217	   -0.013384	   -0.038600	   -0.007309	   -0.011299	   -0.018608	   -0.006961	   -0.007797	   -0.014758	   -0.019408	   -0.015651	   -0.035060	   -0.043056	   -0.018634	   -0.061689	    0.053703	    0.021104	    0.074807	    0.050851	    0.054488	    0.105338	   -0.001084	   -0.006868	   -0.007952	    0.013874	   -0.000111	    0.013763	    0.005450	   -0.009581	   -0.004131	    0.019411	    0.004004	    0.023414	   -0.016321	   -0.009464	   -0.025785	    0.028791	    0.000294	    0.029084	    0.080823	    0.060872	    0.141694	    0.152959	    0.150531	    0.303490	   -0.015187	   -0.019864	   -0.035051	   -0.008549	   -0.014302	   -0.022851	   -0.043398	   -0.036940	   -0.080338	    0.002020	   -0.013516	   -0.011496	   -0.016010	   -0.016147	   -0.032157	    0.123624	    0.084231	    0.207855
     9.300	0	0	    0	   -0.000519	    0.014902	    0.014383	   -0.026586	   -0.012264	   -0.038850	   -0.007789	   -0.011360	   -0.019149	   -0.007213	   -0.008489	   -0.015703	   -0.020307	   -0.016193	   -0.036500	   -0.044549	   -0.018805	   -0.063354	    0.051749	    0.024770	    0.076519	    0.050801	    0.053602	    0.104402	   -0.002201	   -0.006308	   -0.008509	    0.013626	   -0.000147	    0.013479	    0.003905	   -0.009311	   -0.005406	    0.017534	    0.003778	    0.021312	   -0.018906	   -0.009786	   -0.028692	    0.029155	    0.000340	    0.029495	    0.078717	    0.061848	    0.140565	    0.152988	    0.150236	    0.303224	   -0.015331	   -0.020131	   -0.035463	   -0.010116	   -0.015056	   -0.025172	   -0.045382	   -0.037688	   -0.083071	   -0.000739	   -0.014590	   -0.015328	   -0.017776	   -0.016307	   -0.034083	    0.124496	    0.083282	    0.207779
     9.375	0	0	    0	   -0.001185	    0.014662	    0.013477	   -0.027399	   -0.012796	   -0.040196	   -0.009021	   -0.010945	   -0.019965	   -0.007326	   -0.008529	   -0.015854	   -0.021678	   -0.015932	   -0.037610	   -0.045652	   -0.019376	   -0.065027	    0.052447	    0.022030	    0.074477	    0.049435	    0.054599	    0.104034	   -0.001691	   -0.007250	   -0.008941	    0.012202	    0.000098	    0.012301	    0.003290	   -0.008968	   -0.005678	    0.015521	    0.004519	    0.020040	   -0.020984	   -0.010410	   -0.031394	    0.024968	    0.002621	    0.027589	    0.081008	    0.059962	    0.140970	    0.151936	    0.149924	    0.301860	   -0.015456	   -0.020281	   -0.035737	   -0.011853	   -0.015440	   -0.027293	   -0.047500	   -0.038216	   -0.085716	   -0.002333	   -0.015708	   -0.018040	   -0.019791	   -0.016140	   -0.035931	    0.125400	    0.082920	    0.208320
     9.450	0	0	    0	   -0.002697	    0.015068	    0.012371	   -0.029525	   -0.011785	   -0.041311	   -0.010777	   -0.010272	   -0.021049	   -0.009169	   -0.007696	   -0.016865	   -0.022995	   -0.016494	   -0.039489	   -0.048867	   -0.019124	   -0.067991	    0.047237	    0.025734	    0.072971	    0.050369	    0.052330	    0.102700	   -0.004910	   -0.004965	   -0.009875	    0.011209	   -0.000560	    0.010649	    0.002963	   -0.009728	   -0.006765	    0.014255	    0.003476	    0.017731	   -0.024638	   -0.010293	   -0.034931	    0.023140	    0.001925	    0.025065	    0.078683	    0.060475	    0.139158	    0.150522	    0.150532	    0.301054	   -0.018229	   -0.018938	   -0.037168	   -0.013278	   -0.016065	   -0.029342	   -0.048944	   -0.039382	   -0.088326	   -0.007460	   -0.014897	   -0.022357	   -0.024085	   -0.014046	   -0.038131	    0.125056	    0.082162	    0.207218
     9.525	0	0	    0	   -0.000926	    0.013330	    0.012404	   -0.024970	   -0.013614	   -0.038585	   -0.006953	   -0.011817	   -0.018770	   -0.008582	   -0.008085	   -0.016668	   -0.023053	   -0.017021	   -0.040074	   -0.043016	   -0.021252	   -0.064268	    0.057265	    0.024248	    0.081513	    0.050356	    0.052200	    0.102556	   -0.000165	   -0.007600	   -0.007765	    0.016445	   -0.000961	    0.015485	    0.007445	   -0.010763	   -0.003317	    0.015577	    0.002424	    0.018001	   -0.017895	   -0.014234	   -0.032129	    0.030045	    0.000175	    0.030220	    0.081396	    0.060502	    0.141898	    0.152785	    0.148230	    0.301015	   -0.011962	   -0.021470	   -0.033432	   -0.003678	   -0.016668	   -0.020345	   -0.039905	   -0.039349	   -0.079254	    0.000474	   -0.018826	   -0.018352	   -0.015615	   -0.021122	   -0.036737	    0.126915	    0.080892	    0.207807
     9.600	0	0	    0	    0.003827	    0.015526	    0.019354	   -0.023208	   -0.012557	   -0.035765	   -0.003009	   -0.011588	   -0.014597	   -0.004435	   -0.008207	   -0.012642	   -0.018247	   -0.016384	   -0.034631	   -0.039182	   -0.019395	   -0.058577	    0.056854	    0.029201	    0.086055	    0.050516	    0.052721	    0.103237	   -0.002004	   -0.004976	   -0.006981	    0.017278	    0.000941	    0.018219	    0.007723	   -0.008958	   -0.001235	    0.021975	    0.004031	    0.026005	   -0.011172	   -0.009171	   -0.020343	    0.033090	    0.004759	    0.037849	    0.078507	    0.062905	    0.141412	    0.152990	    0.150422	    0.303411	   -0.016517	   -0.018751	   -0.035269	    0.002238	   -0.012986	   -0.010747	   -0.036512	   -0.036268	   -0.072780	    0.006658	   -0.011647	   -0.004990	   -0.011484	   -0.014116	   -0.025601	    0.123329	    0.085869	    0.209197
     9.675	0	0	    0	    0.004710	    0.018752	    0.023462	   -0.023209	   -0.012524	   -0.035732	   -0.002823	   -0.010400	   -0.013223	   -0.003507	   -0.008641	   -0.012148	   -0.016187	   -0.015838	   -0.032025	   -0.038872	   -0.018552	   -0.057424	    0.063963	    0.018492	    0.082454	    0.049792	    0.053055	    0.102847	   -0.000146	   -0.009260	   -0.009406	    0.018890	   -0.001020	    0.017870	    0.007844	   -0.009123	   -0.001279	    0.023134	    0.004423	    0.027557	   -0.009927	   -0.008505	   -0.018432	    0.035733	   -0.001095	    0.034639	    0.080292	    0.060664	    0.140956	    0.154545	    0.150223	    0.304767	   -0.019425	   -0.023523	   -0.042948	    0.002535	   -0.010917	   -0.008382	   -0.036827	   -0.036066	   -0.072894	    0.008743	   -0.013277	   -0.004533	   -0.010670	   -0.013910	   -0.024579	    0.122994	    0.085607	    0.208601
     9.750	0	0	    0	    0.005307	    0.019038	    0.024346	   -0.022394	   -0.013545	   -0.035939	   -0.003350	   -0.009918	   -0.013268	   -0.003645	   -0.008634	   -0.012279	   -0.017251	   -0.015207	   -0.032458	   -0.039339	   -0.019332	   -0.058671	    0.058840	    0.022268	    0.081109	    0.050135	    0.051939	    0.102074	   -0.001715	   -0.007869	   -0.009585	    0.018042	    0.000253	    0.018295	    0.008361	   -0.009850	   -0.001489	    0.022744	    0.004672	    0.027417	   -0.011956	   -0.007889	   -0.019845	    0.032738	    0.000391	    0.033129	    0.079782	    0.060314	    0.140096	    0.153658	    0.151121	    0.304780	   -0.019597	   -0.025273	   -0.044870	    0.001645	   -0.011624	   -0.009979	   -0.037984	   -0.036482	   -0.074466	    0.005188	   -0.011243	   -0.006055	   -0.012960	   -0.012398	   -0.025357	    0.125093	    0.082538	    0.207632
     9.825	0	0	    0	    0.004041	    0.018246	    0.022287	   -0.022222	   -0.013767	   -0.035990	   -0.002272	   -0.010555	   -0.012827	   -0.003985	   -0.008493	   -0.012478	   -0.016991	   -0.015596	   -0.032587	   -0.039602	   -0.018725	   -0.058327	    0.056777	    0.025796	    0.082573	    0.049047	    0.052050	    0.101098	    0.000462	   -0.008842	   -0.008380	    0.020079	   -0.000540	    0.019539	    0.008934	   -0.009916	   -0.000982	    0.022046	    0.004734	    0.026780	   -0.010272	   -0.009747	   -0.020019	    0.031650	   -0.001323	    0.030327	    0.081867	    0.058376	    0.140243	    0.155098	    0.148936	    0.304034	   -0.016544	   -0.025472	   -0.042016	    0.001605	   -0.012162	   -0.010556	   -0.037187	   -0.036843	   -0.074030	    0.006643	   -0.012905	   -0.006263	   -0.010335	   -0.015988	   -0.026323	    0.125389	    0.081916	    0.207305
     9.900	0	0	    0	    0.004451	    0.017036	    0.021487	   -0.023897	   -0.012115	   -0.036012	   -0.003223	   -0.009545	   -0.012768	   -0.003720	   -0.007980	   -0.011700	   -0.016636	   -0.015577	   -0.032213	   -0.040230	   -0.018934	   -0.059164	    0.053394	    0.026161	    0.079556	    0.050192	    0.050738	    0.100930	    0.001520	   -0.009109	   -0.007589	    0.018497	    0.000982	    0.019478	    0.008312	   -0.009507	   -0.001195	    0.022925	    0.005145	    0.028070	   -0.011918	   -0.008271	   -0.020189	    0.029594	    0.001405	    0.030999	    0.078744	    0.060453	    0.139197	    0.154922	    0.148919	    0.303840	   -0.014623	   -0.025240	   -0.039863	   -0.000127	   -0.012047	   -0.012175	   -0.038845	   -0.036240	   -0.075085	    0.008193	   -0.013876	   -0.005683	   -0.009276	   -0.017167	   -0.026443	    0.122916	    0.082629	    0.205545
