 [File Information]      		 [Data Line]	36
Measured Date	2024/05/21 094511
ID		Version	11.0
Name	tristan_3	[HeaderType]	11.0/11.0
Comment	
[Measurement Info.]
Holder Location	       0
Block Design	Off     
Pre.Rest Time	       0
Task Time	       0
Pos.Rest Time	       0
Loop	       0
Averaging	       1
Total Points	     843
[.INF File]
Filename	Cognitive1.INF
[Condition-1]
HV Switching	OFF
 R1 ,R2 ,R3 ,R4 ,R5 ,R6 ,R7 ,R8 
 120.00, 70.00,120.00,100.00, 90.00, 70.00,120.00,120.00
 Gain(X1,X4,X16,X64)
 R1 ,R2 ,R3 ,R4 ,R5 ,R6 ,R7 ,R8 
 1,1,1,1,1,1,1,1
[Analysis Condition]
Smoothed Type	None            
Smoothed Points	       0
Smoothed Loop	       0
Baseline Method	None            
Baseline location	
[Text Info.]
Output Mode	Continious      	Task No.		Data Type	Hb      
Time Range	    0.00	   63.15	Averaing	1
(1,3)(5,3)(5,7)(2,7)(2,4)(6,4)(6,8)(1,1)(3,3)(5,5)(7,7)(2,2)(4,4)(6,6)(8,8)(3,1)(3,5)(7,5)(7,2)(4,2)(4,6)(8,6)
         	     	     	     	    ch- 1	    ch- 1	    ch- 1	    ch- 2	    ch- 2	    ch- 2	    ch- 3	    ch- 3	    ch- 3	    ch- 4	    ch- 4	    ch- 4	    ch- 5	    ch- 5	    ch- 5	    ch- 6	    ch- 6	    ch- 6	    ch- 7	    ch- 7	    ch- 7	    ch- 8	    ch- 8	    ch- 8	    ch- 9	    ch- 9	    ch- 9	    ch-10	    ch-10	    ch-10	    ch-11	    ch-11	    ch-11	    ch-12	    ch-12	    ch-12	    ch-13	    ch-13	    ch-13	    ch-14	    ch-14	    ch-14	    ch-15	    ch-15	    ch-15	    ch-16	    ch-16	    ch-16	    ch-17	    ch-17	    ch-17	    ch-18	    ch-18	    ch-18	    ch-19	    ch-19	    ch-19	    ch-20	    ch-20	    ch-20	    ch-21	    ch-21	    ch-21	    ch-22	    ch-22	    ch-22
Time(sec)	Task	Mark	Count	    oxyHb   	  deoxyHb	  totalHb	    oxyHb   	  deoxyHb	  totalHb	    oxyHb   	  deoxyHb	  totalHb	    oxyHb   	  deoxyHb	  totalHb	    oxyHb   	  deoxyHb	  totalHb	    oxyHb   	  deoxyHb	  totalHb	    oxyHb   	  deoxyHb	  totalHb	    oxyHb   	  deoxyHb	  totalHb	    oxyHb   	  deoxyHb	  totalHb	    oxyHb   	  deoxyHb	  totalHb	    oxyHb   	  deoxyHb	  totalHb	    oxyHb   	  deoxyHb	  totalHb	    oxyHb   	  deoxyHb	  totalHb	    oxyHb   	  deoxyHb	  totalHb	    oxyHb   	  deoxyHb	  totalHb	    oxyHb   	  deoxyHb	  totalHb	    oxyHb   	  deoxyHb	  totalHb	    oxyHb   	  deoxyHb	  totalHb	    oxyHb   	  deoxyHb	  totalHb	    oxyHb   	  deoxyHb	  totalHb	    oxyHb   	  deoxyHb	  totalHb	    oxyHb   	  deoxyHb	  totalHb
     0.000	0	0Z	    0	    0.000000	    0.000000	    0.000000	    0.000000	    0.000000	    0.000000	    0.000000	    0.000000	    0.000000	    0.000000	    0.000000	    0.000000	    0.000000	    0.000000	    0.000000	    0.000000	    0.000000	    0.000000	    0.000000	    0.000000	    0.000000	    0.000000	    0.000000	    0.000000	    0.000000	    0.000000	    0.000000	    0.000000	    0.000000	    0.000000	    0.000000	    0.000000	    0.000000	    0.000000	    0.000000	    0.000000	    0.000000	    0.000000	    0.000000	    0.000000	    0.000000	    0.000000	    0.000000	    0.000000	    0.000000	    0.000000	    0.000000	    0.000000	    0.000000	    0.000000	    0.000000	    0.000000	    0.000000	    0.000000	    0.000000	    0.000000	    0.000000	    0.000000	    0.000000	    0.000000	    0.000000	    0.000000	    0.000000	    0.000000	    0.000000	    0.000000
     0.075	0	0	    0	    0.007719	    0.011245	    0.018964	    0.002774	    0.000465	    0.003239	    0.004981	    0.001016	    0.005996	    0.010552	   -0.004142	    0.006410	    0.009874	   -0.001392	    0.008481	    0.006140	    0.001735	    0.007875	    0.008348	   -0.005626	    0.002722	    0.008509	    0.014891	    0.023401	    0.002772	    0.003317	    0.006089	    0.007109	    0.004102	    0.011211	    0.006262	    0.001975	    0.008237	    0.005189	    0.000227	    0.005416	    0.010046	    0.003022	    0.013068	   -0.001638	    0.006490	    0.004853	    0.009484	   -0.003600	    0.005884	   -0.000660	    0.015747	    0.015087	    0.006039	    0.010951	    0.016990	    0.006241	    0.003287	    0.009528	    0.004331	    0.001702	    0.006033	    0.010222	    0.000155	    0.010377	    0.011811	    0.004337	    0.016148	    0.008695	   -0.002898	    0.005797
     0.150	0	0	    0	    0.006685	    0.007163	    0.013848	    0.001715	    0.000819	    0.002534	    0.007472	    0.000477	    0.007948	    0.009191	    0.000278	    0.009469	    0.011005	   -0.000074	    0.010931	    0.004473	    0.002545	    0.007017	    0.005113	   -0.007667	   -0.002554	    0.007765	    0.007865	    0.015631	    0.002794	    0.002352	    0.005146	    0.006720	    0.006090	    0.012810	    0.006679	    0.002948	    0.009627	    0.006411	    0.000890	    0.007301	    0.012984	    0.004668	    0.017652	   -0.000190	    0.006274	    0.006084	    0.005817	    0.002534	    0.008350	   -0.002451	    0.002289	   -0.000162	    0.004033	    0.008373	    0.012405	    0.002532	    0.004799	    0.007331	    0.001681	    0.003217	    0.004898	    0.011744	    0.002097	    0.013841	    0.013059	    0.006922	    0.019981	    0.004771	    0.000397	    0.005168
     0.225	0	0	    0	    0.004272	    0.007635	    0.011907	    0.001369	    0.000526	    0.001896	    0.004008	    0.003779	    0.007786	    0.008171	    0.000784	    0.008955	    0.009944	    0.001752	    0.011696	    0.001768	    0.002953	    0.004721	    0.003239	   -0.009444	   -0.006206	    0.007938	    0.004144	    0.012083	    0.000841	    0.004996	    0.005837	    0.006668	    0.007264	    0.013931	    0.004795	    0.003067	    0.007862	    0.006657	    0.000140	    0.006797	    0.011656	    0.006454	    0.018110	    0.000145	    0.004327	    0.004472	    0.011242	    0.002181	    0.013423	   -0.004258	    0.003864	   -0.000394	    0.001850	    0.005790	    0.007641	    0.002283	    0.003313	    0.005596	    0.000450	    0.001261	    0.001711	    0.011436	    0.002244	    0.013680	    0.010908	    0.008316	    0.019224	    0.013362	   -0.001129	    0.012233
     0.300	0	0	    0	    0.002865	    0.006461	    0.009325	    0.002937	    0.001229	    0.004165	    0.006047	    0.002315	    0.008362	    0.009218	   -0.000957	    0.008262	    0.012343	   -0.003408	    0.008935	   -0.000688	    0.002784	    0.002096	   -0.001457	   -0.005878	   -0.007335	    0.000700	    0.002586	    0.003286	   -0.001930	    0.005889	    0.003959	    0.006054	    0.007942	    0.013995	    0.005980	    0.002103	    0.008082	    0.006968	   -0.000697	    0.006271	    0.010422	    0.006677	    0.017099	   -0.005003	    0.007907	    0.002904	    0.012112	    0.004026	    0.016138	   -0.005068	    0.002134	   -0.002934	    0.004416	    0.004520	    0.008936	    0.002062	    0.002590	    0.004652	    0.001635	    0.000466	    0.002101	    0.010256	    0.002607	    0.012863	    0.009000	    0.008902	    0.017902	    0.016945	    0.002589	    0.019533
     0.375	0	0	    0	   -0.006808	    0.000520	   -0.006288	    0.004195	    0.003404	    0.007599	    0.006755	    0.002677	    0.009432	    0.007296	    0.001746	    0.009043	    0.010566	   -0.001135	    0.009431	   -0.003166	   -0.000341	   -0.003507	    0.001769	   -0.012798	   -0.011028	   -0.013120	   -0.020091	   -0.033211	    0.002067	    0.002282	    0.004349	    0.005348	    0.008275	    0.013623	    0.004997	    0.002960	    0.007957	    0.006702	   -0.000803	    0.005899	    0.010055	    0.006851	    0.016905	   -0.003630	    0.006310	    0.002679	    0.007096	    0.001291	    0.008387	   -0.004495	   -0.000253	   -0.004749	    0.013025	    0.010304	    0.023328	   -0.001205	    0.003015	    0.001809	    0.000369	    0.001488	    0.001858	    0.009050	    0.003613	    0.012663	    0.009133	    0.008583	    0.017717	    0.010902	    0.000292	    0.011194
     0.450	0	0	    0	   -0.013786	   -0.003751	   -0.017537	    0.001096	    0.005812	    0.006909	    0.001955	    0.006314	    0.008269	    0.007883	   -0.000129	    0.007754	    0.006533	    0.000962	    0.007495	   -0.009189	   -0.000244	   -0.009433	   -0.006617	   -0.002394	   -0.009012	   -0.015851	   -0.032626	   -0.048477	   -0.001549	    0.002222	    0.000674	    0.002234	    0.009374	    0.011608	    0.001628	    0.004099	    0.005727	    0.004580	   -0.000103	    0.004477	    0.007050	    0.007722	    0.014772	   -0.007589	    0.006588	   -0.001000	   -0.000252	    0.008122	    0.007870	   -0.005753	   -0.001362	   -0.007116	    0.006035	    0.017621	    0.023656	   -0.004855	    0.003212	   -0.001642	   -0.004256	    0.002461	   -0.001795	    0.005769	    0.003953	    0.009723	    0.006705	    0.008189	    0.014894	    0.006233	    0.003162	    0.009395
     0.525	0	0	    0	   -0.016122	   -0.007455	   -0.023577	    0.000012	    0.003125	    0.003137	    0.000970	    0.004812	    0.005782	    0.005741	    0.002152	    0.007893	    0.005772	    0.002138	    0.007910	   -0.012209	    0.000250	   -0.011959	   -0.004528	   -0.003418	   -0.007946	   -0.017188	   -0.033690	   -0.050878	   -0.004557	    0.001129	   -0.003429	   -0.000176	    0.009379	    0.009203	   -0.001302	    0.003571	    0.002269	    0.003224	   -0.000142	    0.003082	    0.003638	    0.008381	    0.012019	   -0.009529	    0.009385	   -0.000144	    0.000876	    0.004181	    0.005057	   -0.009715	   -0.002013	   -0.011728	   -0.000279	    0.012872	    0.012594	   -0.006698	    0.002823	   -0.003875	   -0.006273	    0.000778	   -0.005495	    0.001597	    0.004544	    0.006141	    0.001299	    0.010817	    0.012116	    0.002949	    0.003364	    0.006312
     0.600	0	0	    0	   -0.015084	   -0.013925	   -0.029009	   -0.003166	    0.001127	   -0.002039	   -0.001222	    0.002870	    0.001648	    0.002343	    0.000203	    0.002546	    0.002247	    0.001568	    0.003815	   -0.014257	   -0.000703	   -0.014960	   -0.006540	   -0.007173	   -0.013713	   -0.009841	   -0.028405	   -0.038246	   -0.001106	   -0.002851	   -0.003958	   -0.002689	    0.008081	    0.005392	   -0.004302	    0.003467	   -0.000835	    0.002977	   -0.002240	    0.000737	    0.001122	    0.007284	    0.008406	   -0.012070	    0.008686	   -0.003385	   -0.008678	    0.010786	    0.002109	   -0.010024	   -0.011714	   -0.021737	   -0.001347	    0.008736	    0.007389	   -0.009014	    0.002298	   -0.006716	   -0.009346	    0.001151	   -0.008195	   -0.000597	    0.002684	    0.002087	   -0.002735	    0.008954	    0.006219	   -0.002011	    0.000160	   -0.001851
     0.675	0	0	    0	   -0.020026	   -0.008837	   -0.028864	   -0.004565	    0.001294	   -0.003271	   -0.002106	    0.001825	   -0.000281	   -0.002034	    0.002726	    0.000692	   -0.000313	    0.000988	    0.000676	   -0.016394	   -0.000679	   -0.017073	   -0.008535	   -0.005118	   -0.013654	   -0.012028	   -0.018950	   -0.030978	   -0.004146	    0.001395	   -0.002750	   -0.004554	    0.007185	    0.002630	   -0.005301	    0.002138	   -0.003163	   -0.002737	    0.001290	   -0.001447	   -0.002011	    0.006097	    0.004085	   -0.013740	    0.009327	   -0.004412	   -0.004431	    0.003103	   -0.001327	   -0.015459	   -0.009850	   -0.025309	   -0.006361	    0.011035	    0.004674	   -0.011169	    0.001108	   -0.010061	   -0.010232	    0.000328	   -0.009904	   -0.002819	    0.001135	   -0.001683	   -0.005297	    0.007286	    0.001989	   -0.003038	   -0.002772	   -0.005810
     0.750	0	0	    0	   -0.018085	   -0.014214	   -0.032299	   -0.005105	    0.001546	   -0.003559	   -0.005257	    0.002580	   -0.002676	    0.000579	   -0.003258	   -0.002679	   -0.000037	   -0.000162	   -0.000199	   -0.016569	   -0.001949	   -0.018518	   -0.012785	   -0.005484	   -0.018269	   -0.019379	   -0.024640	   -0.044019	   -0.006380	   -0.001124	   -0.007505	   -0.005067	    0.005959	    0.000892	   -0.006538	    0.001761	   -0.004777	   -0.001816	   -0.002039	   -0.003855	   -0.003378	    0.005450	    0.002072	   -0.011496	    0.006422	   -0.005074	   -0.004575	    0.000459	   -0.004115	   -0.004660	   -0.017254	   -0.021914	   -0.008955	    0.009348	    0.000394	   -0.008871	   -0.001087	   -0.009959	   -0.010000	   -0.001431	   -0.011431	   -0.006239	    0.001036	   -0.005202	   -0.007980	    0.006979	   -0.001001	    0.001243	   -0.007800	   -0.006557
     0.825	0	0	    0	    0.026214	    0.011395	    0.037609	   -0.002212	   -0.004230	   -0.006442	    0.000383	   -0.000800	   -0.000417	    0.002958	   -0.002474	    0.000484	    0.002557	    0.000576	    0.003133	   -0.008881	   -0.003615	   -0.012496	   -0.006807	   -0.012655	   -0.019463	    0.022441	   -0.007789	    0.014652	    0.023928	    0.010336	    0.034264	    0.005536	    0.005907	    0.011442	    0.002116	    0.002257	    0.004373	   -0.000339	   -0.000223	   -0.000562	    0.004687	    0.004263	    0.008950	    0.000607	    0.007192	    0.007799	    0.009709	    0.012737	    0.022446	    0.068128	    0.039739	    0.107867	    0.020927	    0.014931	    0.035858	    0.001389	    0.001716	    0.003105	   -0.001488	    0.000587	   -0.000901	    0.002212	   -0.002750	   -0.000538	    0.003462	    0.004225	    0.007687	    0.029374	    0.023870	    0.053244
     0.900	0	0	    0	    0.017977	    0.027405	    0.045382	   -0.000421	   -0.001653	   -0.002074	    0.002834	    0.000171	    0.003005	    0.003637	    0.003280	    0.006917	    0.004942	    0.002637	    0.007578	   -0.009083	   -0.003765	   -0.012848	   -0.011619	   -0.014899	   -0.026518	   -0.013114	    0.012430	   -0.000685	   -0.010006	    0.013156	    0.003149	    0.006616	    0.008934	    0.015550	    0.002924	    0.004125	    0.007049	    0.001906	    0.005262	    0.007168	    0.009194	    0.007721	    0.016915	   -0.006316	    0.010899	    0.004583	   -0.040068	    0.020432	   -0.019635	    0.017460	    0.055783	    0.073242	    0.010549	    0.022498	    0.033046	    0.001225	    0.004370	    0.005595	   -0.001008	    0.002561	    0.001553	    0.006713	    0.001150	    0.007863	    0.011388	    0.008695	    0.020083	   -0.010530	    0.031655	    0.021125
     0.975	0	0	    0	   -0.029559	    0.007249	   -0.022310	    0.011664	    0.004870	    0.016533	    0.004820	    0.002254	    0.007074	    0.005683	    0.002172	    0.007855	    0.005651	    0.003420	    0.009071	   -0.008647	   -0.002272	   -0.010918	   -0.019375	   -0.015667	   -0.035042	   -0.035031	   -0.010346	   -0.045377	   -0.028662	   -0.012636	   -0.041298	    0.004884	    0.007582	    0.012466	    0.003447	    0.002907	    0.006354	    0.002215	    0.000041	    0.002255	    0.008992	    0.008383	    0.017375	   -0.006781	    0.005259	   -0.001522	   -0.064669	   -0.045257	   -0.109926	   -0.006001	   -0.017367	   -0.023368	   -0.001272	    0.012818	    0.011546	    0.001704	    0.002926	    0.004630	   -0.001728	    0.002845	    0.001118	    0.004921	    0.000437	    0.005358	    0.022680	    0.013986	    0.036666	   -0.081030	   -0.035118	   -0.116148
     1.050	0	0	    0	   -0.040628	   -0.025982	   -0.066611	    0.012878	    0.022132	    0.035010	    0.004004	    0.005690	    0.009693	    0.005068	    0.000873	    0.005941	    0.005046	    0.001715	    0.006761	   -0.003573	   -0.000418	   -0.003992	   -0.035490	   -0.012355	   -0.047845	   -0.079610	   -0.083479	   -0.163089	   -0.008697	   -0.049785	   -0.058483	    0.004741	    0.006396	    0.011137	    0.002437	    0.001229	    0.003667	    0.000729	    0.001917	    0.002645	    0.010348	    0.008993	    0.019341	   -0.006950	    0.005904	   -0.001046	   -0.081292	   -0.099797	   -0.181088	    0.005911	   -0.002690	    0.003221	    0.006614	    0.002830	    0.009444	    0.001315	    0.003133	    0.004448	   -0.002195	    0.004017	    0.001822	    0.001915	    0.000657	    0.002572	    0.026751	    0.025295	    0.052046	   -0.099870	   -0.072412	   -0.172282
     1.125	0	0	    0	   -0.054896	   -0.027954	   -0.082849	    0.009215	    0.025063	    0.034278	    0.003779	    0.006384	    0.010163	    0.008140	   -0.002986	    0.005154	    0.006334	    0.000687	    0.007021	   -0.008780	    0.000342	   -0.008438	   -0.040832	   -0.021842	   -0.062673	   -0.078315	   -0.099761	   -0.178076	   -0.011575	   -0.051668	   -0.063243	    0.006049	    0.006502	    0.012551	    0.002000	    0.001393	    0.003393	    0.001661	   -0.001228	    0.000433	    0.010381	    0.010366	    0.020747	    0.000311	    0.011754	    0.012065	   -0.080303	   -0.125830	   -0.206134	   -0.015551	   -0.008405	   -0.023956	   -0.008819	    0.011617	    0.002798	    0.001464	    0.002690	    0.004154	   -0.004475	    0.006231	    0.001756	    0.001640	   -0.000495	    0.001145	    0.024577	    0.029035	    0.053612	   -0.079487	   -0.087861	   -0.167348
     1.200	0	0	    0	   -0.034435	   -0.054400	   -0.088835	   -0.001369	    0.008516	    0.007146	    0.002407	    0.005338	    0.007745	    0.007226	   -0.001505	    0.005720	    0.006164	    0.000928	    0.007093	   -0.019095	   -0.005693	   -0.024788	   -0.035529	   -0.045738	   -0.081267	   -0.020906	   -0.091550	   -0.112456	    0.006881	   -0.032145	   -0.025264	    0.003316	    0.008293	    0.011609	    0.000096	    0.002214	    0.002310	    0.001854	    0.000053	    0.001908	    0.006644	    0.012655	    0.019299	    0.000939	    0.013133	    0.014072	   -0.075789	   -0.097639	   -0.173428	   -0.008555	   -0.036986	   -0.045541	   -0.005497	   -0.008229	   -0.013726	   -0.005675	    0.002928	   -0.002747	   -0.005465	    0.004449	   -0.001016	   -0.000505	   -0.000625	   -0.001130	    0.010908	    0.022471	    0.033379	   -0.023675	   -0.046289	   -0.069964
     1.275	0	0	    0	    0.007090	   -0.001732	    0.005358	   -0.006934	   -0.002475	   -0.009409	   -0.000843	    0.001689	    0.000846	    0.002116	    0.001107	    0.003223	    0.001635	    0.005504	    0.007139	   -0.027266	   -0.005315	   -0.032581	   -0.037568	   -0.055096	   -0.092664	   -0.007147	   -0.016571	   -0.023718	    0.013792	   -0.002653	    0.011139	   -0.001843	    0.008244	    0.006400	   -0.004111	    0.003106	   -0.001005	   -0.001052	    0.001766	    0.000714	    0.004651	    0.010764	    0.015415	   -0.004677	    0.019234	    0.014558	   -0.087367	   -0.072767	   -0.160134	    0.029351	    0.012358	    0.041709	    0.006743	    0.008342	    0.015085	   -0.009524	    0.002034	   -0.007490	   -0.006133	    0.002417	   -0.003716	   -0.003961	    0.000050	   -0.003911	    0.008874	    0.017284	    0.026158	   -0.019510	   -0.013978	   -0.033487
     1.350	0	0	    0	   -0.003711	    0.013110	    0.009399	   -0.003523	   -0.004618	   -0.008141	   -0.001537	    0.002055	    0.000518	   -0.003086	    0.003237	    0.000151	    0.000164	    0.003603	    0.003767	   -0.027907	   -0.011321	   -0.039228	   -0.040658	   -0.060846	   -0.101504	   -0.029435	    0.001935	   -0.027500	   -0.002528	   -0.000243	   -0.002771	   -0.003424	    0.007122	    0.003698	   -0.005055	    0.002259	   -0.002796	   -0.003235	    0.001917	   -0.001317	    0.001283	    0.010151	    0.011434	   -0.007139	    0.018600	    0.011461	   -0.112043	   -0.078079	   -0.190122	   -0.016453	    0.023543	    0.007090	   -0.001649	    0.013095	    0.011446	   -0.011990	    0.001113	   -0.010877	   -0.006396	    0.002523	   -0.003873	   -0.004417	   -0.002178	   -0.006594	    0.007908	    0.014784	    0.022691	   -0.051870	   -0.017651	   -0.069521
     1.425	0	0	    0	   -0.046504	   -0.013568	   -0.060072	    0.006538	    0.008001	    0.014539	   -0.000848	    0.003981	    0.003133	   -0.000023	   -0.002219	   -0.002241	   -0.001181	    0.003074	    0.001894	   -0.027421	   -0.010893	   -0.038314	   -0.049928	   -0.054034	   -0.103962	   -0.067743	   -0.028648	   -0.096391	   -0.032775	   -0.017148	   -0.049923	   -0.006870	    0.005863	   -0.001007	   -0.005885	    0.001293	   -0.004592	   -0.004911	    0.000799	   -0.004112	   -0.000435	    0.009721	    0.009286	   -0.014378	    0.013650	   -0.000728	   -0.135736	   -0.134076	   -0.269812	   -0.010550	   -0.031888	   -0.042438	   -0.016111	    0.010181	   -0.005931	   -0.011223	    0.000710	   -0.010513	   -0.009728	    0.004414	   -0.005314	   -0.008026	   -0.001622	   -0.009647	    0.012409	    0.018245	    0.030653	   -0.111894	   -0.059502	   -0.171396
     1.500	0	0	    0	   -0.050216	   -0.024664	   -0.074881	    0.006664	    0.025881	    0.032545	   -0.002692	    0.008461	    0.005769	   -0.001853	   -0.002913	   -0.004766	   -0.003669	    0.004382	    0.000713	   -0.027833	   -0.005759	   -0.033592	   -0.061834	   -0.044780	   -0.106614	   -0.120355	   -0.099524	   -0.219878	   -0.021158	   -0.047054	   -0.068211	   -0.007924	    0.005200	   -0.002724	   -0.004474	    0.003006	   -0.001468	   -0.002770	    0.000031	   -0.002739	   -0.003422	    0.011398	    0.007976	   -0.018364	    0.012476	   -0.005888	   -0.145465	   -0.184522	   -0.329988	   -0.004297	   -0.000265	   -0.004562	   -0.002996	    0.011383	    0.008387	   -0.013497	    0.000696	   -0.012801	   -0.011913	    0.003838	   -0.008075	   -0.011693	   -0.002053	   -0.013746	    0.011778	    0.028836	    0.040613	   -0.126579	   -0.086411	   -0.212990
     1.575	0	0	    0	   -0.068354	   -0.025970	   -0.094324	    0.006225	    0.028427	    0.034652	   -0.000884	    0.008492	    0.007609	   -0.002221	   -0.001762	   -0.003983	   -0.002739	    0.002972	    0.000233	   -0.024041	   -0.007527	   -0.031568	   -0.054373	   -0.051426	   -0.105799	   -0.126550	   -0.126289	   -0.252839	   -0.027234	   -0.053028	   -0.080262	   -0.002902	    0.003726	    0.000823	    0.000203	    0.002808	    0.003011	   -0.005142	    0.002383	   -0.002760	   -0.003073	    0.009395	    0.006322	   -0.009002	    0.006789	   -0.002212	   -0.125176	   -0.193668	   -0.318844	   -0.023654	    0.001377	   -0.022277	   -0.015350	    0.022417	    0.007067	   -0.005023	   -0.000075	   -0.005098	   -0.005883	    0.003562	   -0.002321	   -0.013812	   -0.003358	   -0.017170	    0.013767	    0.027170	    0.040937	   -0.107328	   -0.100443	   -0.207772
     1.650	0	0	    0	   -0.057578	   -0.053374	   -0.110951	    0.002256	    0.019407	    0.021663	    0.004157	    0.008236	    0.012393	    0.004365	   -0.001402	    0.002963	    0.001838	    0.006663	    0.008501	   -0.025645	   -0.003290	   -0.028935	   -0.046557	   -0.051857	   -0.098414	   -0.050526	   -0.124529	   -0.175055	   -0.005945	   -0.063531	   -0.069476	    0.005494	    0.007461	    0.012955	    0.009575	    0.007604	    0.017179	   -0.000931	    0.003796	    0.002864	    0.006854	    0.012299	    0.019153	   -0.005560	    0.016083	    0.010523	   -0.092900	   -0.159372	   -0.252271	   -0.032444	   -0.030564	   -0.063008	   -0.013472	    0.003921	   -0.009552	   -0.001762	    0.004003	    0.002241	    0.001586	    0.005643	    0.007229	   -0.006293	   -0.004129	   -0.010422	    0.015427	    0.028869	    0.044296	   -0.063961	   -0.078136	   -0.142097
     1.725	0	0	    0	   -0.008670	   -0.028351	   -0.037021	   -0.001664	    0.003868	    0.002204	    0.002241	    0.008150	    0.010391	    0.009065	   -0.001923	    0.007142	    0.007213	    0.003345	    0.010559	   -0.027852	   -0.007942	   -0.035794	   -0.043493	   -0.058853	   -0.102346	   -0.004073	   -0.046881	   -0.050954	   -0.000518	   -0.001470	   -0.001987	    0.002746	    0.009401	    0.012147	    0.008512	    0.010177	    0.018689	    0.002670	    0.005179	    0.007849	    0.009823	    0.012642	    0.022465	   -0.007225	    0.015962	    0.008736	   -0.089597	   -0.114767	   -0.204365	   -0.004872	   -0.042765	   -0.047637	    0.003890	   -0.003260	    0.000630	   -0.003216	    0.004020	    0.000804	   -0.000026	    0.005478	    0.005452	   -0.003577	   -0.004438	   -0.008015	    0.013881	    0.019920	    0.033801	   -0.024233	   -0.043175	   -0.067408
     1.800	0	0	    0	    0.007995	    0.004663	    0.012658	   -0.004771	   -0.002707	   -0.007478	    0.001625	    0.004245	    0.005870	    0.001416	    0.004561	    0.005977	    0.005753	    0.005508	    0.011261	   -0.030063	   -0.012708	   -0.042771	   -0.040439	   -0.066688	   -0.107127	   -0.006347	   -0.010304	   -0.016651	    0.013474	   -0.001513	    0.011961	    0.000387	    0.008309	    0.008696	    0.004202	    0.011095	    0.015296	    0.001325	    0.005997	    0.007322	    0.006642	    0.013646	    0.020289	   -0.008147	    0.011877	    0.003730	   -0.087190	   -0.093245	   -0.180434	    0.018440	    0.000892	    0.019332	    0.010250	    0.010351	    0.020601	   -0.005506	    0.002245	   -0.003262	   -0.002209	    0.004087	    0.001878	   -0.004685	   -0.005041	   -0.009726	    0.010026	    0.018485	    0.028511	   -0.018786	   -0.016906	   -0.035692
     1.875	0	0	    0	    0.002033	    0.013509	    0.015543	   -0.001922	   -0.003286	   -0.005208	   -0.000646	    0.005933	    0.005287	    0.003331	   -0.000080	    0.003251	    0.005559	    0.002219	    0.007778	   -0.032390	   -0.011569	   -0.043959	   -0.045846	   -0.061664	   -0.107510	   -0.019365	   -0.004684	   -0.024049	   -0.005086	    0.001821	   -0.003265	    0.000439	    0.007705	    0.008144	    0.004156	    0.009577	    0.013733	    0.002841	    0.001875	    0.004716	    0.005224	    0.012021	    0.017246	   -0.011456	    0.017302	    0.005846	   -0.109261	   -0.088162	   -0.197423	   -0.020327	    0.015666	   -0.004662	    0.000201	    0.014096	    0.014297	   -0.007243	    0.002382	   -0.004861	   -0.001913	    0.003771	    0.001858	   -0.006266	   -0.005392	   -0.011658	    0.011622	    0.016414	    0.028036	   -0.057031	   -0.014751	   -0.071781
     1.950	0	0	    0	   -0.025874	   -0.006896	   -0.032770	    0.005268	    0.002791	    0.008059	    0.002052	    0.005105	    0.007156	    0.003677	   -0.000826	    0.002851	    0.003451	    0.004623	    0.008074	   -0.029623	   -0.012484	   -0.042107	   -0.044558	   -0.060706	   -0.105264	   -0.032623	   -0.026346	   -0.058970	   -0.024345	   -0.005141	   -0.029485	   -0.000383	    0.007652	    0.007270	    0.002052	    0.009332	    0.011384	    0.002875	    0.000076	    0.002951	    0.003222	    0.012952	    0.016174	   -0.011983	    0.014273	    0.002290	   -0.112469	   -0.127361	   -0.239830	   -0.027625	   -0.034623	   -0.062248	   -0.009168	    0.014152	    0.004984	   -0.007355	    0.002521	   -0.004834	   -0.004695	    0.006057	    0.001362	   -0.007695	   -0.004193	   -0.011887	    0.016119	    0.020975	    0.037094	   -0.098260	   -0.054986	   -0.153246
     2.025	0	0	    0	   -0.032033	   -0.022600	   -0.054633	    0.012382	    0.019161	    0.031543	    0.000690	    0.007193	    0.007883	    0.001464	    0.000853	    0.002317	    0.000129	    0.006963	    0.007092	   -0.025771	   -0.009862	   -0.035633	   -0.051208	   -0.054004	   -0.105212	   -0.093885	   -0.081620	   -0.175505	   -0.019576	   -0.040947	   -0.060523	   -0.001814	    0.005132	    0.003318	    0.000642	    0.007108	    0.007750	   -0.002255	    0.004815	    0.002559	    0.001350	    0.011808	    0.013158	   -0.015806	    0.016447	    0.000642	   -0.136210	   -0.168019	   -0.304229	   -0.006549	   -0.022891	   -0.029440	    0.002679	    0.002548	    0.005227	   -0.008035	    0.002987	   -0.005048	   -0.007580	    0.006196	   -0.001385	   -0.009094	   -0.004367	   -0.013461	    0.019557	    0.026979	    0.046536	   -0.118434	   -0.087525	   -0.205960
     2.100	0	0	    0	   -0.051204	   -0.013748	   -0.064952	    0.010602	    0.029532	    0.040134	   -0.000121	    0.007961	    0.007840	    0.001560	   -0.001220	    0.000340	    0.000794	    0.002831	    0.003626	   -0.024796	   -0.009945	   -0.034741	   -0.055277	   -0.050759	   -0.106036	   -0.134085	   -0.125025	   -0.259110	   -0.025489	   -0.046225	   -0.071715	   -0.003125	    0.005920	    0.002795	   -0.001401	    0.006379	    0.004978	   -0.000149	    0.001059	    0.000910	   -0.001832	    0.011671	    0.009839	   -0.010035	    0.008238	   -0.001796	   -0.137164	   -0.186026	   -0.323190	   -0.018677	    0.003830	   -0.014847	   -0.003673	    0.028033	    0.024360	   -0.010967	    0.003560	   -0.007407	   -0.009728	    0.005789	   -0.003938	   -0.012867	   -0.004495	   -0.017362	    0.015931	    0.033513	    0.049444	   -0.133424	   -0.095371	   -0.228796
     2.175	0	0	    0	   -0.079898	   -0.032989	   -0.112888	    0.003075	    0.025435	    0.028510	   -0.001172	    0.006561	    0.005388	    0.000928	   -0.001173	   -0.000246	   -0.002772	    0.005965	    0.003193	   -0.029787	   -0.008595	   -0.038382	   -0.055893	   -0.054834	   -0.110727	   -0.130274	   -0.138584	   -0.268858	   -0.029360	   -0.061583	   -0.090944	   -0.005157	    0.006991	    0.001834	   -0.003347	    0.005774	    0.002428	   -0.004518	    0.004844	    0.000326	   -0.003900	    0.010195	    0.006295	   -0.008242	    0.012102	    0.003861	   -0.125298	   -0.187551	   -0.312849	   -0.042842	   -0.025480	   -0.068322	   -0.027666	    0.011613	   -0.016053	   -0.015554	    0.003487	   -0.012067	   -0.012654	    0.006210	   -0.006444	   -0.016019	   -0.005408	   -0.021427	    0.008024	    0.032745	    0.040768	   -0.115614	   -0.099661	   -0.215275
     2.250	0	0	    0	   -0.042317	   -0.058897	   -0.101214	   -0.007285	    0.008461	    0.001176	   -0.005301	    0.006213	    0.000912	   -0.004655	    0.002422	   -0.002234	   -0.002697	    0.004003	    0.001307	   -0.038371	   -0.010667	   -0.049039	   -0.055884	   -0.061414	   -0.117299	   -0.045420	   -0.113799	   -0.159220	   -0.004824	   -0.031915	   -0.036739	   -0.009142	    0.008082	   -0.001060	   -0.007716	    0.007447	   -0.000269	   -0.002627	    0.003105	    0.000477	   -0.007034	    0.011145	    0.004111	   -0.015073	    0.015750	    0.000677	   -0.112268	   -0.145069	   -0.257336	   -0.044577	   -0.049056	   -0.093633	   -0.020878	   -0.008733	   -0.029611	   -0.021837	    0.002573	   -0.019264	   -0.016355	    0.006028	   -0.010326	   -0.019958	   -0.004650	   -0.024608	   -0.002230	    0.023282	    0.021052	   -0.076633	   -0.069978	   -0.146611
     2.325	0	0	    0	   -0.022604	   -0.022879	   -0.045484	   -0.009379	    0.000055	   -0.009324	   -0.007840	    0.003106	   -0.004734	   -0.007630	    0.002259	   -0.005371	   -0.005450	    0.006117	    0.000667	   -0.042727	   -0.012540	   -0.055267	   -0.048289	   -0.069898	   -0.118187	   -0.036494	   -0.039567	   -0.076060	   -0.008882	    0.003237	   -0.005645	   -0.009273	    0.005747	   -0.003526	   -0.007749	    0.006211	   -0.001538	   -0.007653	    0.007289	   -0.000364	   -0.008667	    0.010255	    0.001588	   -0.020356	    0.018740	   -0.001616	   -0.104674	   -0.114282	   -0.218956	   -0.016424	   -0.035690	   -0.052114	   -0.013710	    0.000297	   -0.013414	   -0.017671	   -0.000214	   -0.017885	   -0.013053	    0.002146	   -0.010906	   -0.020314	   -0.008030	   -0.028344	   -0.005854	    0.016962	    0.011108	   -0.038787	   -0.042328	   -0.081115
     2.400	0	0	    0	    0.006445	    0.000407	    0.006853	   -0.005809	   -0.001832	   -0.007641	   -0.004205	    0.001647	   -0.002558	   -0.003390	   -0.000501	   -0.003891	    0.002087	    0.001456	    0.003544	   -0.035399	   -0.014858	   -0.050258	   -0.043231	   -0.067650	   -0.110881	   -0.007115	   -0.016112	   -0.023227	    0.008533	   -0.000974	    0.007559	   -0.000600	    0.006985	    0.006384	    0.000930	    0.006255	    0.007185	   -0.003786	    0.003700	   -0.000086	    0.000612	    0.009338	    0.009950	   -0.008882	    0.012574	    0.003693	   -0.091411	   -0.095440	   -0.186851	    0.004873	    0.000349	    0.005222	    0.004210	    0.009071	    0.013281	   -0.007790	    0.002179	   -0.005611	   -0.004330	    0.003348	   -0.000982	   -0.012270	   -0.009616	   -0.021887	    0.006250	    0.015146	    0.021396	   -0.020701	   -0.018655	   -0.039356
     2.475	0	0	    0	    0.009275	    0.011383	    0.020658	   -0.005300	   -0.002953	   -0.008254	   -0.002181	    0.002592	    0.000411	    0.002241	    0.001775	    0.004016	    0.004086	    0.003846	    0.007932	   -0.034797	   -0.015220	   -0.050016	   -0.042847	   -0.068340	   -0.111186	   -0.009224	   -0.003569	   -0.012793	    0.002165	    0.002689	    0.004854	   -0.000137	    0.008466	    0.008329	    0.001143	    0.007539	    0.008682	    0.001027	    0.004390	    0.005417	    0.002996	    0.011448	    0.014445	   -0.011910	    0.016456	    0.004546	   -0.103986	   -0.087301	   -0.191286	   -0.004821	    0.017234	    0.012413	    0.001235	    0.016342	    0.017577	   -0.008984	    0.003323	   -0.005661	   -0.004831	    0.005251	    0.000420	   -0.009164	   -0.007117	   -0.016281	    0.009378	    0.017607	    0.026985	   -0.043925	   -0.008706	   -0.052630
     2.550	0	0	    0	   -0.009413	    0.007526	   -0.001887	   -0.003600	   -0.000768	   -0.004368	   -0.002479	    0.003384	    0.000904	    0.000462	    0.000836	    0.001298	    0.001102	    0.005705	    0.006807	   -0.036041	   -0.014434	   -0.050475	   -0.048346	   -0.064619	   -0.112965	   -0.017996	   -0.012212	   -0.030208	   -0.012369	   -0.002133	   -0.014502	   -0.003579	    0.008902	    0.005323	   -0.001567	    0.007601	    0.006033	   -0.002455	    0.003104	    0.000649	    0.000533	    0.012193	    0.012726	   -0.017313	    0.021779	    0.004466	   -0.120449	   -0.114558	   -0.235007	   -0.042942	   -0.013728	   -0.056669	   -0.004454	    0.010464	    0.006010	   -0.011992	    0.002563	   -0.009428	   -0.007406	    0.006460	   -0.000946	   -0.011576	   -0.006343	   -0.017919	    0.011888	    0.020466	    0.032354	   -0.095313	   -0.035098	   -0.130411
     2.625	0	0	    0	   -0.032743	   -0.018894	   -0.051637	    0.011000	    0.005359	    0.016359	   -0.002378	    0.004556	    0.002179	    0.000238	   -0.001107	   -0.000869	    0.000052	    0.004527	    0.004579	   -0.031911	   -0.013673	   -0.045584	   -0.050653	   -0.060239	   -0.110892	   -0.051810	   -0.028111	   -0.079921	   -0.036040	   -0.012970	   -0.049010	   -0.003651	    0.006610	    0.002959	   -0.001288	    0.005064	    0.003776	   -0.003406	    0.001485	   -0.001921	   -0.001041	    0.010722	    0.009681	   -0.014757	    0.015410	    0.000653	   -0.137706	   -0.150197	   -0.287903	   -0.029037	   -0.041752	   -0.070789	   -0.017713	    0.008219	   -0.009494	   -0.008405	    0.002476	   -0.005930	   -0.006669	    0.005445	   -0.001224	   -0.011400	   -0.008811	   -0.020211	    0.015772	    0.023187	    0.038959	   -0.120321	   -0.075246	   -0.195567
     2.700	0	0	    0	   -0.043108	   -0.018104	   -0.061212	    0.011734	    0.027586	    0.039321	   -0.000726	    0.006734	    0.006008	    0.001667	    0.000569	    0.002236	   -0.000433	    0.005765	    0.005332	   -0.028793	   -0.008809	   -0.037602	   -0.053867	   -0.054686	   -0.108554	   -0.134568	   -0.112778	   -0.247347	   -0.026988	   -0.047438	   -0.074426	   -0.001726	    0.006422	    0.004696	   -0.000606	    0.004921	    0.004314	   -0.001823	    0.001434	   -0.000388	   -0.000695	    0.010441	    0.009747	   -0.012755	    0.013778	    0.001023	   -0.141250	   -0.185290	   -0.326539	   -0.014734	   -0.003132	   -0.017866	    0.004450	    0.023449	    0.027899	   -0.007783	    0.003544	   -0.004239	   -0.007241	    0.005935	   -0.001306	   -0.013252	   -0.005875	   -0.019128	    0.020855	    0.030905	    0.051760	   -0.135048	   -0.089431	   -0.224479
     2.775	0	0	    0	   -0.071927	   -0.022223	   -0.094150	    0.005980	    0.027939	    0.033918	   -0.002868	    0.008074	    0.005205	   -0.000279	    0.001940	    0.001662	   -0.003059	    0.007134	    0.004075	   -0.029491	   -0.008714	   -0.038205	   -0.057570	   -0.052535	   -0.110105	   -0.135345	   -0.130708	   -0.266053	   -0.037874	   -0.055724	   -0.093598	   -0.004012	    0.007635	    0.003623	   -0.003152	    0.005774	    0.002622	   -0.005696	    0.004164	   -0.001532	   -0.003156	    0.010511	    0.007355	   -0.012664	    0.013126	    0.000461	   -0.137548	   -0.189073	   -0.326621	   -0.047710	   -0.008985	   -0.056695	   -0.023122	    0.024063	    0.000940	   -0.013602	    0.004906	   -0.008696	   -0.009039	    0.006437	   -0.002602	   -0.014693	   -0.007192	   -0.021885	    0.016004	    0.034126	    0.050130	   -0.133263	   -0.101414	   -0.234677
     2.850	0	0	    0	   -0.065957	   -0.057214	   -0.123171	   -0.004975	    0.015848	    0.010873	   -0.004263	    0.006490	    0.002227	   -0.000621	    0.001258	    0.000638	   -0.002487	    0.004800	    0.002313	   -0.038438	   -0.008329	   -0.046766	   -0.053620	   -0.059607	   -0.113227	   -0.078079	   -0.126013	   -0.204092	   -0.005672	   -0.060996	   -0.066668	   -0.006397	    0.009609	    0.003212	   -0.004928	    0.006083	    0.001155	   -0.007095	    0.005284	   -0.001810	   -0.005488	    0.010739	    0.005251	   -0.014977	    0.015309	    0.000332	   -0.110973	   -0.166853	   -0.277826	   -0.054112	   -0.043088	   -0.097200	   -0.017866	   -0.001058	   -0.018924	   -0.018728	    0.003598	   -0.015130	   -0.010450	    0.005873	   -0.004578	   -0.017502	   -0.007647	   -0.025150	    0.002707	    0.029570	    0.032277	   -0.098060	   -0.085035	   -0.183095
     2.925	0	0	    0	   -0.030875	   -0.033611	   -0.064485	   -0.008089	    0.004417	   -0.003671	   -0.008254	    0.004988	   -0.003267	    0.002183	   -0.006599	   -0.004415	   -0.000793	    0.001002	    0.000210	   -0.043469	   -0.012721	   -0.056190	   -0.053934	   -0.065910	   -0.119844	   -0.033091	   -0.056294	   -0.089385	   -0.013678	   -0.008918	   -0.022596	   -0.009657	    0.008682	   -0.000975	   -0.007695	    0.005424	   -0.002270	   -0.002694	   -0.000496	   -0.003190	   -0.007261	    0.010213	    0.002951	   -0.018710	    0.015834	   -0.002876	   -0.109867	   -0.133090	   -0.242957	   -0.041615	   -0.050363	   -0.091978	   -0.018863	   -0.000477	   -0.019340	   -0.022192	    0.002438	   -0.019754	   -0.012589	    0.004753	   -0.007836	   -0.019652	   -0.008479	   -0.028131	   -0.002437	    0.020247	    0.017810	   -0.071693	   -0.057606	   -0.129299
     3.000	0	0	    0	   -0.017420	   -0.013017	   -0.030437	   -0.012731	   -0.001352	   -0.014083	   -0.010205	    0.003723	   -0.006482	   -0.006805	    0.003458	   -0.003348	   -0.007263	    0.006812	   -0.000451	   -0.046793	   -0.016281	   -0.063074	   -0.054717	   -0.069305	   -0.124022	   -0.034210	   -0.025101	   -0.059311	   -0.006011	    0.000059	   -0.005951	   -0.012442	    0.007941	   -0.004501	   -0.011479	    0.006097	   -0.005382	   -0.008184	    0.004073	   -0.004111	   -0.010875	    0.010438	   -0.000437	   -0.021947	    0.018590	   -0.003357	   -0.113617	   -0.104995	   -0.218612	   -0.020677	   -0.025219	   -0.045895	   -0.012429	    0.005305	   -0.007124	   -0.025188	    0.001477	   -0.023712	   -0.015632	    0.005621	   -0.010011	   -0.021511	   -0.009436	   -0.030947	   -0.007767	    0.017179	    0.009413	   -0.054479	   -0.029770	   -0.084250
     3.075	0	0	    0	   -0.002572	    0.002098	   -0.000474	   -0.013089	   -0.005147	   -0.018236	   -0.009546	    0.001723	   -0.007823	   -0.006086	    0.000347	   -0.005738	   -0.006121	    0.002187	   -0.003935	   -0.047267	   -0.019662	   -0.066930	   -0.055560	   -0.075217	   -0.130777	   -0.022264	   -0.015903	   -0.038167	   -0.001489	   -0.000269	   -0.001758	   -0.009902	    0.005530	   -0.004371	   -0.007935	    0.003737	   -0.004198	   -0.007938	    0.003978	   -0.003960	   -0.011500	    0.006743	   -0.004757	   -0.025613	    0.020288	   -0.005325	   -0.116177	   -0.105638	   -0.221815	   -0.009794	    0.003609	   -0.006186	   -0.007594	    0.011158	    0.003564	   -0.018557	   -0.000687	   -0.019244	   -0.008926	    0.002665	   -0.006261	   -0.022719	   -0.010009	   -0.032728	   -0.008487	    0.013795	    0.005307	   -0.044628	   -0.022658	   -0.067287
     3.150	0	0	    0	    0.015490	    0.016761	    0.032251	   -0.011725	   -0.006108	   -0.017834	   -0.003865	   -0.000043	   -0.003908	   -0.002722	    0.001569	   -0.001154	   -0.002267	    0.006470	    0.004203	   -0.042700	   -0.019062	   -0.061762	   -0.053724	   -0.082823	   -0.136547	    0.002680	    0.009239	    0.011918	   -0.005465	    0.001010	   -0.004455	   -0.002526	    0.007097	    0.004571	   -0.001177	    0.005883	    0.004706	   -0.003653	    0.002014	   -0.001639	   -0.002030	    0.007269	    0.005239	   -0.017547	    0.011354	   -0.006193	   -0.142517	   -0.113136	   -0.255653	   -0.016939	    0.014998	   -0.001941	   -0.001434	    0.014731	    0.013297	   -0.011348	    0.002960	   -0.008388	   -0.002850	    0.005597	    0.002746	   -0.012921	   -0.012176	   -0.025097	    0.004654	    0.015364	    0.020018	   -0.063414	   -0.018886	   -0.082300
     3.225	0	0	    0	    0.004924	    0.022149	    0.027073	   -0.007681	   -0.006794	   -0.014474	   -0.002737	    0.002009	   -0.000728	    0.001787	    0.000726	    0.002512	   -0.000900	    0.010389	    0.009489	   -0.043663	   -0.016268	   -0.059931	   -0.056812	   -0.083318	   -0.140130	    0.005732	    0.019016	    0.024748	   -0.024754	    0.000006	   -0.024748	   -0.003191	    0.007577	    0.004387	   -0.001987	    0.007204	    0.005217	   -0.004104	    0.004538	    0.000433	   -0.002343	    0.010722	    0.008379	   -0.022792	    0.012501	   -0.010291	   -0.148424	   -0.154106	   -0.302530	   -0.052306	   -0.018167	   -0.070473	   -0.004082	    0.010076	    0.005993	   -0.012300	    0.003862	   -0.008439	   -0.004129	    0.007887	    0.003757	   -0.012604	   -0.010272	   -0.022876	    0.009053	    0.018369	    0.027423	   -0.107160	   -0.047205	   -0.154365
     3.300	0	0	    0	   -0.017282	   -0.004399	   -0.021681	    0.003623	    0.006849	    0.010472	   -0.002377	    0.003445	    0.001068	    0.001656	   -0.000646	    0.001010	    0.001761	    0.005449	    0.007210	   -0.039863	   -0.016819	   -0.056682	   -0.060065	   -0.075778	   -0.135844	   -0.064552	   -0.008454	   -0.073006	   -0.035633	   -0.035730	   -0.071362	   -0.004193	    0.005250	    0.001057	   -0.003549	    0.005816	    0.002267	   -0.000564	    0.001366	    0.000802	   -0.004725	    0.010969	    0.006244	   -0.030166	    0.011794	   -0.018372	   -0.176966	   -0.193665	   -0.370630	   -0.028792	   -0.029735	   -0.058527	   -0.011965	    0.006036	   -0.005929	   -0.010358	    0.004728	   -0.005630	   -0.006895	    0.007778	    0.000883	   -0.015454	   -0.008215	   -0.023669	    0.011050	    0.023035	    0.034085	   -0.134433	   -0.080229	   -0.214662
     3.375	0	0	    0	   -0.031470	    0.003469	   -0.028002	    0.005177	    0.021293	    0.026470	   -0.001475	    0.006091	    0.004616	    0.002044	   -0.000089	    0.001956	   -0.001702	    0.007318	    0.005616	   -0.038102	   -0.013371	   -0.051473	   -0.063358	   -0.068215	   -0.131573	   -0.110510	   -0.084943	   -0.195453	   -0.031271	   -0.045730	   -0.077001	   -0.002699	    0.004543	    0.001845	   -0.002459	    0.006019	    0.003559	   -0.005174	    0.005456	    0.000283	   -0.004814	    0.008701	    0.003887	   -0.027623	    0.010179	   -0.017444	   -0.172877	   -0.221300	   -0.394177	   -0.030402	    0.003723	   -0.026679	   -0.000340	    0.028194	    0.027854	   -0.009661	    0.005917	   -0.003745	   -0.006670	    0.007691	    0.001021	   -0.016266	   -0.009603	   -0.025869	    0.011736	    0.027910	    0.039646	   -0.144243	   -0.085882	   -0.230125
     3.450	0	0	    0	   -0.062061	   -0.007802	   -0.069863	    0.000211	    0.018967	    0.019177	   -0.001512	    0.006425	    0.004913	    0.003068	    0.000225	    0.003293	    0.000706	    0.004272	    0.004978	   -0.040109	   -0.012831	   -0.052940	   -0.061269	   -0.068125	   -0.129394	   -0.109464	   -0.095988	   -0.205452	   -0.037182	   -0.055027	   -0.092209	   -0.002832	    0.005673	    0.002841	   -0.002719	    0.006463	    0.003744	   -0.003270	    0.004571	    0.001301	   -0.005074	    0.009263	    0.004189	   -0.026623	    0.014286	   -0.012337	   -0.157309	   -0.219031	   -0.376341	   -0.056646	   -0.016968	   -0.073614	   -0.022845	    0.028101	    0.005257	   -0.012802	    0.006616	   -0.006186	   -0.006930	    0.007725	    0.000795	   -0.017051	   -0.009910	   -0.026961	    0.009124	    0.027836	    0.036960	   -0.122361	   -0.092722	   -0.215083
     3.525	0	0	    0	   -0.035546	   -0.036923	   -0.072469	   -0.011627	    0.004000	   -0.007627	   -0.003386	    0.003700	    0.000314	    0.003180	   -0.002461	    0.000719	   -0.003871	    0.008499	    0.004628	   -0.045537	   -0.016394	   -0.061932	   -0.058868	   -0.073318	   -0.132185	   -0.028177	   -0.085794	   -0.113971	   -0.010042	   -0.051934	   -0.061975	   -0.006180	    0.008495	    0.002315	   -0.006114	    0.008203	    0.002090	   -0.003716	    0.002960	   -0.000756	   -0.005895	    0.008203	    0.002307	   -0.029292	    0.008903	   -0.020389	   -0.140905	   -0.181395	   -0.322300	   -0.059197	   -0.046043	   -0.105239	   -0.017463	    0.002351	   -0.015113	   -0.018756	    0.005384	   -0.013373	   -0.010616	    0.008305	   -0.002310	   -0.018434	   -0.011696	   -0.030130	   -0.002554	    0.021617	    0.019062	   -0.094116	   -0.067252	   -0.161368
     3.600	0	0	    0	   -0.009980	   -0.007164	   -0.017144	   -0.015957	   -0.005591	   -0.021548	   -0.006423	    0.002554	   -0.003870	   -0.001571	    0.000918	   -0.000654	   -0.003601	    0.006806	    0.003205	   -0.049366	   -0.019093	   -0.068459	   -0.058891	   -0.078651	   -0.137542	   -0.005437	   -0.005525	   -0.010962	   -0.021648	   -0.001866	   -0.023514	   -0.009148	    0.006903	   -0.002246	   -0.009154	    0.008099	   -0.001055	   -0.006499	    0.006482	   -0.000017	   -0.009834	    0.009830	   -0.000004	   -0.029171	    0.009836	   -0.019336	   -0.137255	   -0.151495	   -0.288750	   -0.045408	   -0.042285	   -0.087693	   -0.016953	    0.003421	   -0.013533	   -0.021792	    0.004410	   -0.017383	   -0.011820	    0.006219	   -0.005601	   -0.022357	   -0.009091	   -0.031449	   -0.006533	    0.015441	    0.008908	   -0.061921	   -0.043434	   -0.105355
     3.675	0	0	    0	    0.004748	    0.011589	    0.016337	   -0.019452	   -0.009903	   -0.029355	   -0.008717	    0.001172	   -0.007545	   -0.004101	    0.000686	   -0.003415	   -0.000829	    0.000839	    0.000011	   -0.054419	   -0.019817	   -0.074236	   -0.056138	   -0.085026	   -0.141164	   -0.008212	    0.020899	    0.012686	   -0.010861	   -0.000269	   -0.011129	   -0.011615	    0.006395	   -0.005220	   -0.011725	    0.007268	   -0.004457	   -0.007432	    0.004847	   -0.002585	   -0.011721	    0.008203	   -0.003518	   -0.033357	    0.009409	   -0.023948	   -0.135478	   -0.130302	   -0.265780	   -0.024202	   -0.014777	   -0.038979	   -0.009486	    0.011271	    0.001785	   -0.024097	    0.003295	   -0.020802	   -0.013194	    0.004404	   -0.008790	   -0.022065	   -0.012237	   -0.034302	   -0.010802	    0.012885	    0.002083	   -0.054008	   -0.022578	   -0.076586
     3.750	0	0	    0	    0.001155	    0.027000	    0.028155	   -0.021115	   -0.011265	   -0.032380	   -0.009819	   -0.000175	   -0.009994	   -0.009133	    0.001832	   -0.007301	   -0.008408	    0.007771	   -0.000637	   -0.055924	   -0.021262	   -0.077186	   -0.058395	   -0.084122	   -0.142517	   -0.013552	    0.028988	    0.015436	   -0.013700	    0.000796	   -0.012904	   -0.013630	    0.006107	   -0.007523	   -0.013883	    0.006489	   -0.007394	   -0.008994	    0.005529	   -0.003465	   -0.014570	    0.007585	   -0.006984	   -0.033602	    0.006612	   -0.026990	   -0.152843	   -0.119084	   -0.271927	   -0.029862	    0.003257	   -0.026605	   -0.011990	    0.016714	    0.004724	   -0.025236	    0.002230	   -0.023005	   -0.014231	    0.005004	   -0.009227	   -0.026254	   -0.010934	   -0.037188	   -0.012767	    0.009741	   -0.003026	   -0.078532	   -0.011100	   -0.089632
     3.825	0	0	    0	   -0.010081	    0.017278	    0.007197	   -0.003999	   -0.007856	   -0.011855	   -0.003031	   -0.001020	   -0.004051	   -0.005018	   -0.001978	   -0.006995	   -0.003386	    0.003223	   -0.000163	   -0.045214	   -0.022094	   -0.067308	   -0.052848	   -0.079756	   -0.132603	   -0.015678	    0.014389	   -0.001289	   -0.036655	   -0.004849	   -0.041504	   -0.003284	    0.004108	    0.000825	   -0.002745	    0.004633	    0.001888	   -0.008511	    0.004057	   -0.004454	   -0.007486	    0.004522	   -0.002964	   -0.029343	    0.006401	   -0.022942	   -0.150396	   -0.160495	   -0.310891	   -0.053394	   -0.031782	   -0.085177	   -0.005552	    0.005590	    0.000038	   -0.009071	    0.001992	   -0.007079	   -0.004444	    0.006021	    0.001577	   -0.019575	   -0.014455	   -0.034029	    0.003739	    0.010653	    0.014392	   -0.115867	   -0.049463	   -0.165330
     3.900	0	0	    0	   -0.014886	   -0.008054	   -0.022940	    0.008839	    0.010796	    0.019635	    0.000913	    0.004947	    0.005860	    0.003725	    0.000477	    0.004201	    0.000201	    0.008182	    0.008383	   -0.036170	   -0.015756	   -0.051926	   -0.056698	   -0.069194	   -0.125892	   -0.065411	   -0.027662	   -0.093073	   -0.029417	   -0.041544	   -0.070961	    0.002372	    0.005775	    0.008147	    0.001019	    0.007681	    0.008700	   -0.002255	    0.004815	    0.002559	   -0.000912	    0.007675	    0.006763	   -0.026317	    0.008446	   -0.017871	   -0.168007	   -0.202697	   -0.370704	   -0.026038	   -0.022421	   -0.048459	    0.009266	    0.002802	    0.012068	   -0.003551	    0.008087	    0.004536	   -0.003911	    0.009874	    0.005963	   -0.014255	   -0.011792	   -0.026047	    0.016609	    0.022400	    0.039009	   -0.134702	   -0.075426	   -0.210128
     3.975	0	0	    0	   -0.039615	    0.003074	   -0.036541	    0.007050	    0.020589	    0.027639	    0.001765	    0.006673	    0.008438	    0.004878	    0.002384	    0.007262	    0.001024	    0.010909	    0.011933	   -0.034836	   -0.013573	   -0.048409	   -0.056848	   -0.067337	   -0.124185	   -0.104465	   -0.077071	   -0.181536	   -0.032722	   -0.038292	   -0.071013	    0.002613	    0.006692	    0.009305	    0.000548	    0.009167	    0.009715	   -0.000318	    0.004553	    0.004236	   -0.001337	    0.009068	    0.007732	   -0.023559	    0.006929	   -0.016631	   -0.161710	   -0.213327	   -0.375037	   -0.047649	   -0.000056	   -0.047705	   -0.001900	    0.034336	    0.032435	   -0.006358	    0.009174	    0.002817	   -0.003455	    0.009358	    0.005904	   -0.014455	   -0.010954	   -0.025410	    0.017401	    0.027549	    0.044950	   -0.137570	   -0.085627	   -0.223197
     4.050	0	0	    0	   -0.063338	   -0.022807	   -0.086145	   -0.000751	    0.015363	    0.014612	   -0.000434	    0.006697	    0.006263	    0.005293	   -0.000033	    0.005260	    0.003209	    0.007195	    0.010404	   -0.039194	   -0.015475	   -0.054669	   -0.052586	   -0.074335	   -0.126921	   -0.078096	   -0.092646	   -0.170742	   -0.026968	   -0.058633	   -0.085601	    0.001725	    0.006924	    0.008649	    0.000431	    0.008076	    0.008507	   -0.000916	    0.004652	    0.003736	   -0.003138	    0.008718	    0.005580	   -0.029123	    0.012568	   -0.016554	   -0.129675	   -0.204117	   -0.333792	   -0.059014	   -0.030353	   -0.089367	   -0.011754	    0.010081	   -0.001673	   -0.011661	    0.008008	   -0.003653	   -0.001956	    0.006702	    0.004746	   -0.016944	   -0.011059	   -0.028002	    0.009401	    0.024311	    0.033712	   -0.100480	   -0.086233	   -0.186713
     4.125	0	0	    0	   -0.007115	   -0.018866	   -0.025981	   -0.005806	   -0.002080	   -0.007886	    0.000605	    0.003794	    0.004399	    0.002165	    0.003445	    0.005610	   -0.000628	    0.008679	    0.008052	   -0.044090	   -0.017075	   -0.061164	   -0.052557	   -0.079138	   -0.131695	   -0.000354	   -0.023655	   -0.024009	   -0.013744	   -0.012139	   -0.025883	   -0.000299	    0.008513	    0.008214	    0.000555	    0.008106	    0.008661	   -0.003169	    0.005315	    0.002146	   -0.001670	    0.007248	    0.005578	   -0.027274	    0.012389	   -0.014885	   -0.124597	   -0.163095	   -0.287691	   -0.043554	   -0.045832	   -0.089386	   -0.005276	    0.002323	   -0.002953	   -0.012223	    0.006618	   -0.005605	   -0.003334	    0.007976	    0.004642	   -0.015791	   -0.012972	   -0.028762	    0.003436	    0.016970	    0.020405	   -0.062824	   -0.054349	   -0.117173
     4.200	0	0	    0	    0.010613	    0.011473	    0.022086	   -0.010157	   -0.005800	   -0.015957	   -0.002324	    0.004019	    0.001694	    0.003122	    0.002558	    0.005680	    0.002235	    0.008108	    0.010344	   -0.048355	   -0.017356	   -0.065711	   -0.053499	   -0.080370	   -0.133869	   -0.001297	    0.024685	    0.023388	   -0.007538	    0.003069	   -0.004469	   -0.002906	    0.009229	    0.006323	   -0.003005	    0.009376	    0.006371	   -0.002511	    0.004701	    0.002190	   -0.003675	    0.009143	    0.005468	   -0.030753	    0.013819	   -0.016934	   -0.125873	   -0.129528	   -0.255401	   -0.022264	   -0.009098	   -0.031362	    0.000040	    0.015903	    0.015943	   -0.014175	    0.006552	   -0.007623	   -0.005352	    0.007905	    0.002553	   -0.016154	   -0.011796	   -0.027950	    0.001433	    0.016081	    0.017514	   -0.049072	   -0.022600	   -0.071672
     4.275	0	0	    0	    0.008973	    0.026323	    0.035296	   -0.011954	   -0.008810	   -0.020764	   -0.002495	    0.001778	   -0.000717	    0.000059	    0.002114	    0.002173	   -0.000688	    0.007106	    0.006418	   -0.049441	   -0.020313	   -0.069754	   -0.051634	   -0.086044	   -0.137678	   -0.006155	    0.034249	    0.028094	   -0.011840	    0.003088	   -0.008752	   -0.004958	    0.007808	    0.002850	   -0.005355	    0.008306	    0.002950	   -0.005418	    0.006200	    0.000781	   -0.004710	    0.006888	    0.002178	   -0.025849	    0.006523	   -0.019326	   -0.135520	   -0.124881	   -0.260401	   -0.028372	    0.010274	   -0.018098	   -0.000959	    0.015846	    0.014887	   -0.017915	    0.005702	   -0.012214	   -0.008242	    0.008110	   -0.000132	   -0.017164	   -0.012852	   -0.030016	   -0.000035	    0.012092	    0.012058	   -0.065773	   -0.018842	   -0.084615
     4.350	0	0	    0	   -0.005620	    0.023764	    0.018144	   -0.007007	   -0.008660	   -0.015667	   -0.001300	   -0.000403	   -0.001703	   -0.002019	   -0.000125	   -0.002143	   -0.003247	    0.006851	    0.003604	   -0.048940	   -0.022127	   -0.071067	   -0.047656	   -0.087429	   -0.135085	   -0.015128	    0.029003	    0.013875	   -0.033576	    0.003834	   -0.029743	   -0.006578	    0.007338	    0.000760	   -0.007168	    0.007332	    0.000164	   -0.006112	    0.004258	   -0.001854	   -0.008332	    0.008017	   -0.000315	   -0.029764	    0.005801	   -0.023963	   -0.134072	   -0.145922	   -0.279993	   -0.058445	   -0.009063	   -0.067508	   -0.005318	    0.010427	    0.005109	   -0.019346	    0.005059	   -0.014287	   -0.009103	    0.007456	   -0.001648	   -0.019337	   -0.011715	   -0.031052	   -0.001095	    0.013087	    0.011991	   -0.083899	   -0.033743	   -0.117643
     4.425	0	0	    0	   -0.033097	   -0.005709	   -0.038806	    0.001058	    0.001768	    0.002825	   -0.002075	    0.002628	    0.000553	   -0.003813	    0.001688	   -0.002125	   -0.002508	    0.004282	    0.001775	   -0.048854	   -0.019122	   -0.067976	   -0.056839	   -0.074344	   -0.131182	   -0.059115	   -0.007822	   -0.066937	   -0.050882	   -0.022287	   -0.073169	   -0.008214	    0.006298	   -0.001916	   -0.008806	    0.006686	   -0.002120	   -0.006195	    0.004146	   -0.002049	   -0.010158	    0.006442	   -0.003716	   -0.038382	    0.009531	   -0.028851	   -0.166219	   -0.173744	   -0.339963	   -0.047339	   -0.025390	   -0.072729	   -0.020381	    0.012502	   -0.007879	   -0.018358	    0.005598	   -0.012760	   -0.012197	    0.007541	   -0.004656	   -0.022376	   -0.011000	   -0.033376	    0.002244	    0.015205	    0.017449	   -0.138865	   -0.055707	   -0.194572
     4.500	0	0	    0	   -0.039739	   -0.002939	   -0.042678	    0.004760	    0.015427	    0.020187	   -0.001912	    0.004067	    0.002155	   -0.001998	   -0.001244	   -0.003242	   -0.008006	    0.010255	    0.002249	   -0.041248	   -0.017811	   -0.059059	   -0.057039	   -0.073816	   -0.130855	   -0.092540	   -0.062134	   -0.154674	   -0.031704	   -0.040162	   -0.071866	   -0.002515	    0.002812	    0.000298	   -0.004253	    0.005278	    0.001024	   -0.005149	    0.002175	   -0.002974	   -0.010299	    0.005321	   -0.004979	   -0.030277	    0.005623	   -0.024655	   -0.162759	   -0.209403	   -0.372162	   -0.041177	   -0.006530	   -0.047707	   -0.005184	    0.020413	    0.015229	   -0.009105	    0.004648	   -0.004458	   -0.007351	    0.006970	   -0.000381	   -0.022480	   -0.012056	   -0.034536	    0.007265	    0.022472	    0.029737	   -0.135168	   -0.079126	   -0.214295
     4.575	0	0	    0	   -0.051858	   -0.008904	   -0.060763	    0.008809	    0.015701	    0.024510	    0.005656	    0.003867	    0.009523	    0.005325	   -0.000862	    0.004463	    0.004501	    0.004925	    0.009427	   -0.033825	   -0.015430	   -0.049255	   -0.047089	   -0.075710	   -0.122798	   -0.074067	   -0.073963	   -0.148029	   -0.034525	   -0.041823	   -0.076347	    0.007245	    0.006024	    0.013269	    0.004157	    0.007529	    0.011686	   -0.001521	    0.003667	    0.002146	    0.000161	    0.005419	    0.005581	   -0.020800	    0.004998	   -0.015802	   -0.141662	   -0.213485	   -0.355147	   -0.056130	   -0.013258	   -0.069388	   -0.007513	    0.025263	    0.017750	   -0.002120	    0.008959	    0.006839	    0.000708	    0.008660	    0.009368	   -0.013501	   -0.013704	   -0.027205	    0.017995	    0.024367	    0.042362	   -0.115016	   -0.089292	   -0.204308
     4.650	0	0	    0	   -0.026858	   -0.038559	   -0.065417	   -0.000844	    0.005351	    0.004507	    0.004169	    0.006284	    0.010453	    0.006821	    0.001827	    0.008648	    0.003574	    0.010464	    0.014038	   -0.039510	   -0.014706	   -0.054216	   -0.052423	   -0.071940	   -0.124363	   -0.013308	   -0.055722	   -0.069030	   -0.013385	   -0.036626	   -0.050012	    0.005081	    0.010091	    0.015172	    0.004364	    0.009746	    0.014111	    0.000783	    0.004698	    0.005481	    0.001088	    0.008382	    0.009470	   -0.024983	    0.012819	   -0.012164	   -0.118069	   -0.179652	   -0.297721	   -0.065398	   -0.029470	   -0.094867	   -0.016368	    0.016668	    0.000299	   -0.006140	    0.008557	    0.002416	    0.000569	    0.009926	    0.010495	   -0.012728	   -0.012076	   -0.024804	    0.009546	    0.022097	    0.031642	   -0.074194	   -0.070438	   -0.144632
     4.725	0	0	    0	    0.001678	    0.000576	    0.002254	   -0.003852	   -0.004485	   -0.008337	    0.003663	    0.002458	    0.006121	    0.004761	    0.004185	    0.008946	    0.003705	    0.009159	    0.012864	   -0.043216	   -0.017929	   -0.061146	   -0.049216	   -0.081430	   -0.130645	    0.002516	    0.016182	    0.018698	   -0.015188	    0.007281	   -0.007907	    0.003307	    0.009340	    0.012647	    0.001527	    0.009529	    0.011057	   -0.001880	    0.007187	    0.005307	    0.000552	    0.008148	    0.008699	   -0.023022	    0.011638	   -0.011384	   -0.115789	   -0.143923	   -0.259711	   -0.029716	   -0.024401	   -0.054117	    0.001358	    0.011656	    0.013015	   -0.008939	    0.008008	   -0.000931	   -0.001357	    0.008470	    0.007113	   -0.012873	   -0.012542	   -0.025415	    0.007380	    0.017369	    0.024748	   -0.046012	   -0.035222	   -0.081234
     4.800	0	0	    0	    0.013458	    0.020048	    0.033506	   -0.005247	   -0.007808	   -0.013055	    0.002922	    0.001595	    0.004516	    0.003573	    0.003101	    0.006674	    0.005224	    0.005357	    0.010581	   -0.044668	   -0.019758	   -0.064426	   -0.046758	   -0.086498	   -0.133257	    0.003816	    0.033638	    0.037454	   -0.009650	    0.006920	   -0.002731	    0.002852	    0.008621	    0.011473	    0.001409	    0.008186	    0.009594	   -0.001174	    0.004102	    0.002928	    0.000133	    0.007446	    0.007579	   -0.025249	    0.009968	   -0.015281	   -0.117976	   -0.128399	   -0.246375	   -0.024413	    0.008353	   -0.016060	    0.001226	    0.022527	    0.023753	   -0.009132	    0.006797	   -0.002335	   -0.000159	    0.007598	    0.007438	   -0.012776	   -0.012752	   -0.025528	    0.007189	    0.013349	    0.020538	   -0.050834	   -0.018486	   -0.069321
     4.875	0	0	    0	   -0.000522	    0.024514	    0.023992	   -0.002822	   -0.007877	   -0.010699	    0.004566	    0.000149	    0.004715	    0.003779	    0.001377	    0.005156	    0.001324	    0.010607	    0.011931	   -0.043482	   -0.020525	   -0.064007	   -0.045304	   -0.088234	   -0.133538	   -0.001469	    0.032668	    0.031198	   -0.020676	    0.005544	   -0.015132	    0.001836	    0.008914	    0.010751	    0.000153	    0.008399	    0.008552	   -0.001286	    0.002716	    0.001429	    0.000467	    0.006739	    0.007205	   -0.027782	    0.012611	   -0.015171	   -0.121910	   -0.142209	   -0.264119	   -0.045661	   -0.006128	   -0.051789	   -0.002268	    0.018504	    0.016236	   -0.009661	    0.005773	   -0.003888	   -0.001298	    0.007778	    0.006480	   -0.012916	   -0.012071	   -0.024987	    0.009402	    0.014182	    0.023584	   -0.071139	   -0.035246	   -0.106385
     4.950	0	0	    0	   -0.015382	    0.011244	   -0.004138	    0.002315	   -0.005029	   -0.002714	    0.000520	    0.004665	    0.005185	    0.004001	   -0.000041	    0.003960	    0.003693	    0.005947	    0.009641	   -0.045904	   -0.017125	   -0.063029	   -0.045985	   -0.082804	   -0.128790	   -0.004891	    0.016638	    0.011747	   -0.037545	    0.002170	   -0.035375	   -0.000295	    0.008944	    0.008649	   -0.001319	    0.007856	    0.006538	   -0.001958	    0.002911	    0.000953	   -0.001542	    0.007204	    0.005663	   -0.028015	    0.006233	   -0.021782	   -0.130541	   -0.156268	   -0.286809	   -0.051346	   -0.024714	   -0.076060	   -0.001861	    0.013969	    0.012108	   -0.010617	    0.005827	   -0.004790	   -0.004591	    0.009002	    0.004410	   -0.014729	   -0.011239	   -0.025968	    0.009410	    0.016533	    0.025943	   -0.114510	   -0.043252	   -0.157761
     5.025	0	0	    0	   -0.026966	   -0.002228	   -0.029194	    0.011250	    0.010803	    0.022054	    0.004299	    0.003288	    0.007587	    0.002415	    0.001401	    0.003816	    0.004146	    0.004532	    0.008679	   -0.039567	   -0.016476	   -0.056043	   -0.051319	   -0.074170	   -0.125489	   -0.078393	   -0.026252	   -0.104645	   -0.033654	   -0.034052	   -0.067706	   -0.000118	    0.006376	    0.006258	   -0.002159	    0.006526	    0.004367	   -0.002850	    0.004475	    0.001625	   -0.005223	    0.007691	    0.002468	   -0.029280	    0.009305	   -0.019974	   -0.150590	   -0.206567	   -0.357157	   -0.034912	   -0.007785	   -0.042697	   -0.001614	    0.011580	    0.009966	   -0.009117	    0.006887	   -0.002231	   -0.006780	    0.008395	    0.001614	   -0.016575	   -0.010984	   -0.027559	    0.012493	    0.022856	    0.035349	   -0.131222	   -0.077380	   -0.208601
     5.100	0	0	    0	   -0.046566	    0.001463	   -0.045103	    0.008490	    0.017880	    0.026370	    0.002503	    0.005276	    0.007779	    0.002031	    0.001550	    0.003581	   -0.000571	    0.006174	    0.005603	   -0.039500	   -0.017060	   -0.056559	   -0.054725	   -0.073555	   -0.128280	   -0.099740	   -0.061460	   -0.161200	   -0.039529	   -0.035563	   -0.075092	   -0.000867	    0.006422	    0.005556	   -0.004165	    0.007776	    0.003611	   -0.005579	    0.006621	    0.001041	   -0.007060	    0.006512	   -0.000549	   -0.032548	    0.009269	   -0.023279	   -0.154166	   -0.215664	   -0.369830	   -0.051727	    0.007835	   -0.043893	   -0.012910	    0.036569	    0.023659	   -0.012266	    0.008347	   -0.003919	   -0.008066	    0.008039	   -0.000027	   -0.020348	   -0.009232	   -0.029580	    0.012315	    0.025939	    0.038254	   -0.143029	   -0.084788	   -0.227817
     5.175	0	0	    0	   -0.072925	   -0.017312	   -0.090237	   -0.000555	    0.014951	    0.014396	   -0.000438	    0.006723	    0.006284	    0.002150	   -0.001145	    0.001005	   -0.001395	    0.006669	    0.005274	   -0.044913	   -0.013737	   -0.058650	   -0.060219	   -0.069211	   -0.129431	   -0.086572	   -0.075885	   -0.162457	   -0.039481	   -0.051280	   -0.090761	   -0.003361	    0.007747	    0.004386	   -0.005307	    0.007056	    0.001750	   -0.003945	    0.004119	    0.000174	   -0.008799	    0.005611	   -0.003188	   -0.033302	    0.014465	   -0.018837	   -0.134004	   -0.212139	   -0.346143	   -0.063483	   -0.022752	   -0.086235	   -0.026571	    0.016670	   -0.009901	   -0.016843	    0.007389	   -0.009454	   -0.009819	    0.006943	   -0.002876	   -0.022061	   -0.011078	   -0.033139	    0.003565	    0.025162	    0.028727	   -0.118184	   -0.087073	   -0.205257
     5.250	0	0	    0	   -0.014475	   -0.025710	   -0.040185	    0.000005	   -0.001966	   -0.001962	    0.001168	    0.004836	    0.006003	    0.001018	   -0.001106	   -0.000089	    0.001834	    0.003132	    0.004967	   -0.043563	   -0.017497	   -0.061060	   -0.049634	   -0.079575	   -0.129210	    0.003057	   -0.040495	   -0.037438	   -0.020998	   -0.009808	   -0.030806	    0.004242	    0.007665	    0.011907	    0.002308	    0.007202	    0.009510	   -0.004865	    0.004197	   -0.000668	   -0.002790	    0.002774	   -0.000016	   -0.027435	    0.015611	   -0.011823	   -0.112702	   -0.170021	   -0.282723	   -0.054362	   -0.030195	   -0.084557	   -0.011979	    0.009929	   -0.002050	   -0.007041	    0.006046	   -0.000994	   -0.000078	    0.006501	    0.006422	   -0.019031	   -0.013682	   -0.032713	    0.005086	    0.015230	    0.020316	   -0.063345	   -0.057012	   -0.120357
     5.325	0	0	    0	    0.011224	    0.006796	    0.018020	    0.000331	   -0.005923	   -0.005592	    0.006014	    0.002170	    0.008184	    0.008932	   -0.000225	    0.008707	    0.010359	    0.004789	    0.015148	   -0.041839	   -0.017328	   -0.059167	   -0.041846	   -0.086299	   -0.128145	    0.013178	    0.025115	    0.038292	   -0.011708	    0.010796	   -0.000913	    0.007092	    0.010501	    0.017593	    0.005177	    0.009646	    0.014823	    0.003897	    0.003406	    0.007303	    0.003378	    0.006840	    0.010218	   -0.020121	    0.010014	   -0.010107	   -0.105945	   -0.140951	   -0.246896	   -0.020614	   -0.011971	   -0.032585	    0.007595	    0.014972	    0.022567	   -0.004010	    0.008658	    0.004649	    0.003075	    0.009006	    0.012081	   -0.011112	   -0.012701	   -0.023813	    0.012208	    0.015826	    0.028034	   -0.043626	   -0.022733	   -0.066359
     5.400	0	0	    0	    0.012535	    0.025734	    0.038269	   -0.000622	   -0.007646	   -0.008268	    0.006529	    0.002179	    0.008708	    0.009255	    0.001701	    0.010956	    0.008435	    0.006791	    0.015227	   -0.041660	   -0.020613	   -0.062273	   -0.044048	   -0.085987	   -0.130036	    0.007365	    0.042737	    0.050102	   -0.010155	    0.010666	    0.000512	    0.006365	    0.010545	    0.016910	    0.003457	    0.009791	    0.013248	    0.001485	    0.005573	    0.007058	    0.003387	    0.007775	    0.011162	   -0.023578	    0.014859	   -0.008718	   -0.114655	   -0.131342	   -0.245997	   -0.021604	    0.012272	   -0.009332	    0.001248	    0.028734	    0.029982	   -0.005862	    0.008156	    0.002293	    0.001938	    0.009119	    0.011056	   -0.011573	   -0.010257	   -0.021830	    0.011370	    0.016115	    0.027485	   -0.049630	   -0.014949	   -0.064579
     5.475	0	0	    0	   -0.003354	    0.024899	    0.021545	    0.004414	   -0.008806	   -0.004392	    0.007471	    0.000455	    0.007926	    0.005683	    0.002172	    0.007855	    0.005714	    0.008023	    0.013737	   -0.039615	   -0.022040	   -0.061655	   -0.036500	   -0.091229	   -0.127729	    0.001669	    0.034285	    0.035954	   -0.026727	    0.009770	   -0.016957	    0.005180	    0.009360	    0.014540	    0.002383	    0.008204	    0.010587	    0.000768	    0.003838	    0.004606	    0.001580	    0.006720	    0.008299	   -0.025830	    0.011997	   -0.013833	   -0.118505	   -0.165977	   -0.284483	   -0.044219	   -0.005960	   -0.050178	   -0.000402	    0.021761	    0.021359	   -0.006823	    0.006961	    0.000138	    0.000204	    0.009463	    0.009666	   -0.012825	   -0.011343	   -0.024168	    0.015012	    0.015266	    0.030279	   -0.098859	   -0.043544	   -0.142403
     5.550	0	0	    0	   -0.021224	    0.000616	   -0.020607	    0.016683	    0.008580	    0.025264	    0.008704	    0.003816	    0.012520	    0.006935	    0.001789	    0.008724	    0.006383	    0.005082	    0.011466	   -0.035647	   -0.016907	   -0.052554	   -0.047181	   -0.076269	   -0.123450	   -0.066581	   -0.000164	   -0.066745	   -0.036538	   -0.025296	   -0.061833	    0.006681	    0.007611	    0.014292	    0.003545	    0.007603	    0.011149	    0.001467	    0.001419	    0.002886	    0.001804	    0.006290	    0.008095	   -0.026965	    0.012265	   -0.014700	   -0.143270	   -0.207957	   -0.351226	   -0.022469	   -0.003719	   -0.026188	    0.002092	    0.014152	    0.016245	   -0.001781	    0.008577	    0.006796	   -0.000899	    0.009964	    0.009065	   -0.012724	   -0.010925	   -0.023649	    0.021652	    0.021995	    0.043647	   -0.122015	   -0.075274	   -0.197290
     5.625	0	0	    0	   -0.041528	    0.003788	   -0.037740	    0.014352	    0.019839	    0.034191	    0.008098	    0.005718	    0.013815	    0.009328	   -0.000184	    0.009144	    0.008609	    0.003513	    0.012122	   -0.034338	   -0.016049	   -0.050387	   -0.048724	   -0.073712	   -0.122436	   -0.095545	   -0.059997	   -0.155542	   -0.034824	   -0.029801	   -0.064625	    0.006254	    0.007961	    0.014215	    0.003300	    0.007385	    0.010685	    0.001514	    0.002896	    0.004410	    0.000389	    0.006416	    0.006805	   -0.028620	    0.012143	   -0.016477	   -0.142167	   -0.221442	   -0.363609	   -0.041492	    0.014911	   -0.026581	   -0.001759	    0.038449	    0.036690	   -0.004074	    0.009603	    0.005529	   -0.000686	    0.008806	    0.008120	   -0.012849	   -0.011159	   -0.024009	    0.020801	    0.028278	    0.049079	   -0.131653	   -0.087569	   -0.219222
     5.700	0	0	    0	   -0.063719	   -0.020935	   -0.084653	    0.006138	    0.015329	    0.021467	    0.006999	    0.003920	    0.010919	    0.007250	   -0.000291	    0.006959	    0.007344	    0.002940	    0.010284	   -0.039427	   -0.013451	   -0.052878	   -0.047763	   -0.077891	   -0.125654	   -0.075538	   -0.079317	   -0.154855	   -0.034223	   -0.045976	   -0.080198	    0.006316	    0.007173	    0.013489	    0.000300	    0.009108	    0.009407	    0.001829	    0.002057	    0.003887	   -0.001265	    0.006095	    0.004830	   -0.025402	    0.012612	   -0.012790	   -0.114056	   -0.220852	   -0.334908	   -0.052469	   -0.016035	   -0.068503	   -0.017978	    0.023511	    0.005533	   -0.011810	    0.010458	   -0.001352	   -0.002789	    0.008897	    0.006109	   -0.016502	   -0.009754	   -0.026256	    0.014087	    0.026328	    0.040414	   -0.096818	   -0.092663	   -0.189481
     5.775	0	0	    0	   -0.010025	   -0.014373	   -0.024398	   -0.000940	   -0.003928	   -0.004868	    0.004745	    0.002340	    0.007085	    0.006442	   -0.000993	    0.005449	    0.007108	    0.002499	    0.009607	   -0.045450	   -0.018069	   -0.063519	   -0.047552	   -0.085595	   -0.133146	   -0.006165	   -0.018429	   -0.024594	   -0.018182	    0.004613	   -0.013568	    0.001010	    0.009807	    0.010817	   -0.002325	    0.009288	    0.006963	    0.001754	    0.002591	    0.004345	   -0.002804	    0.005347	    0.002543	   -0.026077	    0.009909	   -0.016168	   -0.106597	   -0.166207	   -0.272805	   -0.032100	   -0.027431	   -0.059531	   -0.005080	    0.010687	    0.005607	   -0.013623	    0.007372	   -0.006251	   -0.004746	    0.008064	    0.003317	   -0.017452	   -0.011599	   -0.029052	    0.002682	    0.018069	    0.020751	   -0.051867	   -0.047394	   -0.099261
     5.850	0	0	    0	    0.007538	    0.021010	    0.028548	   -0.006489	   -0.007932	   -0.014422	    0.000718	    0.001938	    0.002656	    0.000632	    0.003838	    0.004470	    0.002853	    0.006800	    0.009654	   -0.049125	   -0.020360	   -0.069485	   -0.048318	   -0.091605	   -0.139922	   -0.007934	    0.033407	    0.025473	   -0.004829	    0.008812	    0.003983	   -0.001883	    0.009600	    0.007716	   -0.004512	    0.008243	    0.003731	   -0.002172	    0.004928	    0.002756	   -0.005260	    0.005666	    0.000406	   -0.027294	    0.011220	   -0.016074	   -0.104563	   -0.142995	   -0.247558	   -0.010108	    0.014711	    0.004603	   -0.000311	    0.025447	    0.025136	   -0.014915	    0.005293	   -0.009622	   -0.006761	    0.007462	    0.000701	   -0.018577	   -0.011641	   -0.030219	    0.000179	    0.015095	    0.015274	   -0.044405	   -0.020077	   -0.064481
     5.925	0	0	    0	    0.002943	    0.031521	    0.034464	   -0.006995	   -0.010941	   -0.017936	    0.001009	    0.000042	    0.001051	   -0.000262	    0.002240	    0.001978	   -0.000857	    0.007347	    0.006489	   -0.050986	   -0.022449	   -0.073435	   -0.049266	   -0.092501	   -0.141767	   -0.014094	    0.041324	    0.027230	   -0.012718	    0.010376	   -0.002343	   -0.002993	    0.008435	    0.005442	   -0.005074	    0.006885	    0.001811	   -0.002927	    0.005008	    0.002082	   -0.007240	    0.004009	   -0.003231	   -0.026834	    0.008469	   -0.018365	   -0.115490	   -0.141478	   -0.256968	   -0.021051	    0.028097	    0.007046	   -0.001639	    0.021184	    0.019544	   -0.015300	    0.004133	   -0.011167	   -0.006437	    0.007006	    0.000569	   -0.019318	   -0.012731	   -0.032049	   -0.000683	    0.011543	    0.010860	   -0.059524	   -0.029409	   -0.088933
     6.000	0	0	    0	   -0.000154	    0.023957	    0.023802	    0.006342	   -0.008638	   -0.002297	    0.008129	   -0.000093	    0.008036	    0.002306	   -0.000393	    0.001913	    0.004637	    0.004517	    0.009154	   -0.040210	   -0.023731	   -0.063941	   -0.041080	   -0.087414	   -0.128494	    0.002832	    0.032340	    0.035172	   -0.025410	    0.011270	   -0.014139	    0.005880	    0.007630	    0.013510	    0.004056	    0.007053	    0.011109	   -0.000954	    0.002732	    0.001778	   -0.000409	    0.002787	    0.002378	   -0.025221	    0.011339	   -0.013881	   -0.125278	   -0.171861	   -0.297139	   -0.043690	    0.002842	   -0.040848	    0.001956	    0.020888	    0.022844	   -0.002227	    0.003854	    0.001627	    0.002401	    0.008938	    0.011339	   -0.015558	   -0.014292	   -0.029850	    0.013025	    0.010388	    0.023413	   -0.104497	   -0.035254	   -0.139751
     6.075	0	0	    0	   -0.017502	   -0.002005	   -0.019507	    0.017877	    0.010928	    0.028805	    0.010804	    0.005458	    0.016262	    0.007063	    0.004841	    0.011905	    0.008503	    0.008738	    0.017240	   -0.033681	   -0.015619	   -0.049300	   -0.043837	   -0.079986	   -0.123822	   -0.064759	   -0.006155	   -0.070914	   -0.030665	   -0.024813	   -0.055477	    0.010101	    0.008719	    0.018821	    0.006720	    0.008784	    0.015504	    0.003352	    0.005423	    0.008775	    0.004059	    0.005692	    0.009751	   -0.024058	    0.012032	   -0.012025	   -0.140480	   -0.216992	   -0.357472	   -0.008878	   -0.001218	   -0.010096	    0.016982	    0.015342	    0.032325	    0.002859	    0.009125	    0.011984	    0.002800	    0.010601	    0.013401	   -0.010210	   -0.012507	   -0.022717	    0.024367	    0.022645	    0.047012	   -0.118620	   -0.076507	   -0.195126
     6.150	0	0	    0	   -0.040683	    0.009881	   -0.030802	    0.017558	    0.020808	    0.038366	    0.010461	    0.007209	    0.017669	    0.008721	    0.004504	    0.013224	    0.011159	    0.005913	    0.017072	   -0.031796	   -0.015848	   -0.047644	   -0.045577	   -0.078472	   -0.124049	   -0.098815	   -0.058218	   -0.157033	   -0.029727	   -0.029874	   -0.059601	    0.008964	    0.009821	    0.018785	    0.006999	    0.008472	    0.015470	    0.003892	    0.006515	    0.010407	    0.003297	    0.005550	    0.008847	   -0.023315	    0.012732	   -0.010583	   -0.134416	   -0.232933	   -0.367348	   -0.027752	    0.024114	   -0.003638	    0.005032	    0.042995	    0.048027	   -0.000453	    0.010225	    0.009772	    0.001611	    0.010729	    0.012341	   -0.012623	   -0.010506	   -0.023129	    0.022938	    0.028193	    0.051131	   -0.126952	   -0.084590	   -0.211541
     6.225	0	0	    0	   -0.060044	   -0.016475	   -0.076519	    0.008784	    0.017115	    0.025899	    0.009165	    0.007428	    0.016593	    0.008170	    0.002956	    0.011127	    0.010257	    0.005368	    0.015625	   -0.036980	   -0.014751	   -0.051732	   -0.050003	   -0.077659	   -0.127662	   -0.071019	   -0.079016	   -0.150035	   -0.028219	   -0.043963	   -0.072183	    0.008995	    0.008899	    0.017894	    0.006890	    0.009102	    0.015992	    0.004964	    0.004714	    0.009678	    0.002601	    0.004019	    0.006620	   -0.027435	    0.015611	   -0.011823	   -0.112267	   -0.231862	   -0.344129	   -0.042993	   -0.007059	   -0.050052	   -0.007326	    0.025298	    0.017973	   -0.005169	    0.009899	    0.004731	    0.003185	    0.009166	    0.012351	   -0.014655	   -0.011788	   -0.026443	    0.016117	    0.024459	    0.040576	   -0.096081	   -0.093147	   -0.189228
     6.300	0	0	    0	    0.015830	    0.000329	    0.016159	    0.000684	   -0.004229	   -0.003545	    0.009087	    0.003332	    0.012419	    0.010449	    0.002475	    0.012924	    0.009022	    0.008000	    0.017022	   -0.040794	   -0.018758	   -0.059552	   -0.045877	   -0.089522	   -0.135399	    0.009240	    0.003968	    0.013207	   -0.001169	    0.012447	    0.011279	    0.006650	    0.011017	    0.017667	    0.006119	    0.010351	    0.016469	    0.003739	    0.007153	    0.010892	    0.003465	    0.004864	    0.008330	   -0.026096	    0.014678	   -0.011418	   -0.104232	   -0.185594	   -0.289826	    0.001640	   -0.014879	   -0.013239	    0.006770	    0.014485	    0.021254	   -0.005489	    0.008534	    0.003045	    0.000501	    0.010087	    0.010588	   -0.012950	   -0.013659	   -0.026610	    0.010043	    0.017322	    0.027366	   -0.031673	   -0.057553	   -0.089226
     6.375	0	0	    0	    0.032552	    0.045040	    0.077592	   -0.004905	   -0.009056	   -0.013961	    0.007674	    0.000452	    0.008126	    0.005722	    0.006197	    0.011918	    0.010526	    0.006340	    0.016866	   -0.045648	   -0.020716	   -0.066364	   -0.043024	   -0.096094	   -0.139117	    0.018040	    0.043420	    0.061460	    0.005880	    0.030339	    0.036219	    0.004656	    0.010387	    0.015042	    0.002715	    0.010890	    0.013605	    0.005970	    0.006783	    0.012754	    0.002366	    0.005302	    0.007668	   -0.029212	    0.013971	   -0.015241	   -0.081584	   -0.148898	   -0.230482	    0.039982	    0.060078	    0.100061	    0.016446	    0.032354	    0.048800	   -0.008185	    0.008710	    0.000524	   -0.000457	    0.008716	    0.008260	   -0.013815	   -0.012373	   -0.026188	    0.006664	    0.012356	    0.019020	   -0.010767	   -0.003680	   -0.014447
     6.450	0	0	    0	    0.025720	    0.052287	    0.078007	   -0.006008	   -0.012645	   -0.018653	    0.006692	   -0.000875	    0.005817	    0.005333	    0.004373	    0.009706	    0.007634	    0.007462	    0.015097	   -0.047709	   -0.023068	   -0.070777	   -0.045990	   -0.099044	   -0.145034	   -0.004964	    0.071461	    0.066496	   -0.020381	    0.046070	    0.025689	    0.003617	    0.009930	    0.013547	    0.000602	    0.009543	    0.010145	    0.003437	    0.009095	    0.012532	   -0.000718	    0.005629	    0.004911	   -0.033111	    0.013197	   -0.019914	   -0.125356	   -0.134966	   -0.260322	    0.015646	    0.085522	    0.101168	    0.007852	    0.036369	    0.044221	   -0.010457	    0.008429	   -0.002028	   -0.002892	    0.009003	    0.006111	   -0.013771	   -0.013362	   -0.027133	    0.004867	    0.011584	    0.016451	   -0.046327	   -0.001557	   -0.047884
     6.525	0	0	    0	   -0.018528	    0.039361	    0.020833	    0.005384	   -0.008143	   -0.002759	    0.005820	    0.001841	    0.007661	    0.003032	    0.002490	    0.005522	    0.003670	    0.008989	    0.012659	   -0.047142	   -0.021381	   -0.068523	   -0.049939	   -0.091089	   -0.141029	   -0.023649	    0.034272	    0.010623	   -0.038669	    0.004235	   -0.034435	    0.001053	    0.008834	    0.009887	   -0.000522	    0.007510	    0.006988	    0.000353	    0.008994	    0.009347	   -0.002937	    0.004162	    0.001224	   -0.033255	    0.009184	   -0.024072	   -0.131000	   -0.195232	   -0.326232	   -0.040847	    0.008806	   -0.032040	   -0.004393	    0.021147	    0.016754	   -0.009877	    0.007002	   -0.002875	   -0.004272	    0.009144	    0.004872	   -0.016870	   -0.012232	   -0.029102	    0.009243	    0.013312	    0.022555	   -0.113457	   -0.050899	   -0.164356
     6.600	0	0	    0	   -0.034433	    0.001296	   -0.033136	    0.013109	    0.010808	    0.023917	    0.006051	    0.004915	    0.010966	   -0.000512	    0.006549	    0.006037	    0.002781	    0.008790	    0.011572	   -0.043112	   -0.018182	   -0.061295	   -0.052962	   -0.081459	   -0.134421	   -0.086544	   -0.017310	   -0.103853	   -0.038849	   -0.024855	   -0.063704	    0.000133	    0.008068	    0.008201	   -0.001829	    0.006996	    0.005168	   -0.000758	    0.008630	    0.007872	   -0.005817	    0.004795	   -0.001022	   -0.035789	    0.008475	   -0.027314	   -0.148370	   -0.232920	   -0.381289	   -0.019542	    0.003671	   -0.015871	   -0.001189	    0.022905	    0.021716	   -0.010582	    0.007859	   -0.002723	   -0.007858	    0.009416	    0.001558	   -0.018021	   -0.012091	   -0.030112	    0.012135	    0.019390	    0.031525	   -0.134021	   -0.082500	   -0.216521
     6.675	0	0	    0	   -0.048611	    0.007011	   -0.041600	    0.014576	    0.021337	    0.035913	    0.006242	    0.005272	    0.011514	    0.000435	    0.003401	    0.003836	   -0.001941	    0.009190	    0.007249	   -0.040181	   -0.017685	   -0.057866	   -0.050853	   -0.080919	   -0.131772	   -0.114522	   -0.068171	   -0.182693	   -0.038736	   -0.032750	   -0.071486	    0.003744	    0.005944	    0.009688	    0.001493	    0.005134	    0.006627	   -0.002622	    0.008345	    0.005723	   -0.006017	    0.002654	   -0.003362	   -0.030185	    0.005202	   -0.024983	   -0.139510	   -0.251926	   -0.391436	   -0.025772	    0.033722	    0.007950	    0.002412	    0.048358	    0.050770	   -0.004948	    0.005722	    0.000775	   -0.003186	    0.007588	    0.004402	   -0.020598	   -0.011705	   -0.032302	    0.011078	    0.024356	    0.035433	   -0.133059	   -0.094624	   -0.227682
     6.750	0	0	    0	   -0.064247	   -0.013692	   -0.077939	    0.013981	    0.018407	    0.032388	    0.012403	    0.005218	    0.017621	    0.012511	   -0.002469	    0.010042	    0.014919	   -0.002311	    0.012609	   -0.034507	   -0.015599	   -0.050106	   -0.047348	   -0.081006	   -0.128355	   -0.083940	   -0.085953	   -0.169894	   -0.034372	   -0.049128	   -0.083500	    0.013641	    0.008812	    0.022454	    0.010418	    0.007785	    0.018203	    0.007558	    0.001437	    0.008995	    0.004682	    0.002485	    0.007167	   -0.026424	    0.013623	   -0.012801	   -0.108606	   -0.239494	   -0.348100	   -0.036043	    0.002198	   -0.033844	   -0.001171	    0.030330	    0.029159	    0.000979	    0.010717	    0.011697	    0.004567	    0.010108	    0.014675	   -0.011272	   -0.014416	   -0.025688	    0.019721	    0.024112	    0.043834	   -0.094657	   -0.102318	   -0.196975
     6.825	0	0	    0	    0.012326	   -0.014494	   -0.002168	    0.001799	   -0.002830	   -0.001031	    0.011489	    0.004206	    0.015695	    0.010523	    0.003171	    0.013694	    0.011281	    0.007665	    0.018946	   -0.040390	   -0.017046	   -0.057436	   -0.043009	   -0.090326	   -0.133335	    0.018715	   -0.021947	   -0.003232	   -0.002456	    0.003519	    0.001063	    0.010709	    0.012386	    0.023095	    0.010677	    0.009962	    0.020639	    0.005648	    0.007639	    0.013287	    0.008147	    0.004539	    0.012685	   -0.022538	    0.010035	   -0.012503	   -0.097454	   -0.180219	   -0.277673	   -0.008083	   -0.024647	   -0.032730	    0.010905	    0.009960	    0.020865	    0.000051	    0.008802	    0.008853	    0.006167	    0.009344	    0.015511	   -0.010228	   -0.012218	   -0.022446	    0.013844	    0.015562	    0.029407	   -0.027246	   -0.046171	   -0.073417
     6.900	0	0	    0	    0.038795	    0.050009	    0.088804	   -0.001249	   -0.009802	   -0.011052	    0.009815	    0.001526	    0.011341	    0.011960	    0.004485	    0.016446	    0.011510	    0.008480	    0.019990	   -0.041879	   -0.020817	   -0.062695	   -0.042525	   -0.094957	   -0.137482	    0.028404	    0.052933	    0.081338	    0.006703	    0.029666	    0.036368	    0.009630	    0.011633	    0.021263	    0.008439	    0.009348	    0.017787	    0.008101	    0.008802	    0.016902	    0.006759	    0.005947	    0.012706	   -0.029194	    0.015353	   -0.013841	   -0.086306	   -0.160961	   -0.247267	    0.037549	    0.057367	    0.094916	    0.018901	    0.034147	    0.053048	   -0.002802	    0.009960	    0.007158	    0.004641	    0.008728	    0.013370	   -0.008185	   -0.013772	   -0.021957	    0.012297	    0.012470	    0.024766	   -0.019672	   -0.009478	   -0.029150
     6.975	0	0	    0	    0.034250	    0.053319	    0.087569	   -0.003745	   -0.011771	   -0.015516	    0.010754	    0.000126	    0.010880	    0.009916	    0.004351	    0.014267	    0.014512	    0.005870	    0.020382	   -0.043803	   -0.020349	   -0.064152	   -0.042714	   -0.095800	   -0.138514	    0.016666	    0.071511	    0.088177	   -0.010156	    0.037471	    0.027315	    0.009320	    0.010929	    0.020249	    0.007505	    0.008814	    0.016320	    0.008365	    0.005769	    0.014134	    0.006592	    0.004488	    0.011079	   -0.027577	    0.012716	   -0.014861	   -0.106143	   -0.151064	   -0.257207	    0.018332	    0.073054	    0.091386	    0.016466	    0.034594	    0.051060	   -0.002175	    0.008108	    0.005933	    0.005069	    0.009030	    0.014099	   -0.008303	   -0.014396	   -0.022699	    0.010734	    0.011483	    0.022217	   -0.039862	   -0.014552	   -0.054414
     7.050	0	0	    0	   -0.009446	    0.047245	    0.037799	    0.009016	   -0.007174	    0.001842	    0.012887	    0.001791	    0.014678	    0.007944	    0.006790	    0.014734	    0.007105	    0.010911	    0.018016	   -0.039859	   -0.022116	   -0.061975	   -0.039580	   -0.094375	   -0.133955	   -0.008511	    0.048823	    0.040312	   -0.029856	    0.003827	   -0.026029	    0.008105	    0.010436	    0.018542	    0.008646	    0.007206	    0.015852	    0.004195	    0.008137	    0.012332	    0.006081	    0.004445	    0.010526	   -0.029198	    0.008478	   -0.020720	   -0.111751	   -0.189884	   -0.301635	   -0.037590	    0.007694	   -0.029896	    0.003244	    0.028145	    0.031390	   -0.000010	    0.006409	    0.006400	    0.004470	    0.009876	    0.014346	   -0.009305	   -0.012313	   -0.021618	    0.015131	    0.013581	    0.028712	   -0.102379	   -0.043815	   -0.146194
     7.125	0	0	    0	   -0.023368	    0.002893	   -0.020475	    0.019761	    0.008580	    0.028342	    0.013185	    0.004696	    0.017881	    0.010543	    0.003475	    0.014019	    0.011931	    0.005615	    0.017546	   -0.036546	   -0.017153	   -0.053699	   -0.044972	   -0.081815	   -0.126787	   -0.056497	   -0.007002	   -0.063499	   -0.027338	   -0.027112	   -0.054451	    0.008788	    0.008964	    0.017752	    0.007716	    0.006797	    0.014513	    0.005431	    0.005240	    0.010671	    0.004861	    0.004040	    0.008901	   -0.032916	    0.012338	   -0.020578	   -0.132292	   -0.237288	   -0.369580	   -0.016460	   -0.000914	   -0.017374	    0.007593	    0.017596	    0.025189	   -0.000406	    0.009183	    0.008777	    0.002145	    0.009439	    0.011584	   -0.010428	   -0.011901	   -0.022329	    0.019832	    0.022036	    0.041869	   -0.120636	   -0.086390	   -0.207026
     7.200	0	0	    0	   -0.042697	    0.011279	   -0.031418	    0.016406	    0.022008	    0.038415	    0.011904	    0.006445	    0.018348	    0.007607	    0.004939	    0.012547	    0.006268	    0.008706	    0.014974	   -0.035815	   -0.016590	   -0.052405	   -0.045442	   -0.080374	   -0.125816	   -0.100634	   -0.056509	   -0.157143	   -0.030887	   -0.028148	   -0.059035	    0.007387	    0.009366	    0.016753	    0.006357	    0.006921	    0.013277	    0.002738	    0.008420	    0.011158	    0.001741	    0.004296	    0.006037	   -0.031304	    0.010894	   -0.020409	   -0.133306	   -0.250623	   -0.383929	   -0.028892	    0.029738	    0.000846	    0.008405	    0.044318	    0.052724	   -0.003308	    0.008761	    0.005453	    0.000895	    0.009194	    0.010089	   -0.011865	   -0.012951	   -0.024816	    0.019198	    0.026516	    0.045715	   -0.136411	   -0.093872	   -0.230284
     7.275	0	0	    0	   -0.070868	   -0.011850	   -0.082718	    0.007751	    0.016881	    0.024632	    0.010727	    0.004800	    0.015527	    0.009190	    0.002452	    0.011642	    0.007798	    0.004539	    0.012337	   -0.042034	   -0.015123	   -0.057157	   -0.050528	   -0.081706	   -0.132234	   -0.088516	   -0.072729	   -0.161245	   -0.032198	   -0.044315	   -0.076513	    0.005345	    0.010282	    0.015628	    0.004668	    0.007894	    0.012562	    0.005358	    0.006442	    0.011800	    0.000807	    0.002636	    0.003444	   -0.036740	    0.015873	   -0.020867	   -0.109063	   -0.248285	   -0.357348	   -0.044073	   -0.004022	   -0.048095	   -0.010422	    0.028724	    0.018302	   -0.009242	    0.009424	    0.000182	   -0.002313	    0.009375	    0.007062	   -0.014360	   -0.012314	   -0.026674	    0.012602	    0.024024	    0.036626	   -0.102323	   -0.102092	   -0.204415
     7.350	0	0	    0	   -0.008726	   -0.015130	   -0.023856	   -0.004318	   -0.003841	   -0.008159	    0.007195	    0.002035	    0.009230	    0.007141	   -0.000660	    0.006481	    0.010084	    0.002230	    0.012314	   -0.047032	   -0.020801	   -0.067832	   -0.046387	   -0.094166	   -0.140553	   -0.002720	   -0.018779	   -0.021498	   -0.009153	    0.003033	   -0.006120	    0.001328	    0.011175	    0.012503	    0.001287	    0.008182	    0.009469	    0.003646	    0.006826	    0.010472	   -0.001042	    0.002974	    0.001931	   -0.033153	    0.009511	   -0.023642	   -0.099913	   -0.195818	   -0.295732	   -0.018671	   -0.029689	   -0.048361	   -0.001887	    0.011796	    0.009909	   -0.011806	    0.006925	   -0.004881	   -0.004031	    0.007516	    0.003486	   -0.015793	   -0.014628	   -0.030421	    0.001129	    0.012685	    0.013814	   -0.046562	   -0.053089	   -0.099651
     7.425	0	0	    0	    0.020285	    0.029749	    0.050034	   -0.003592	   -0.011660	   -0.015252	    0.007103	   -0.001231	    0.005872	    0.001797	    0.003897	    0.005694	    0.003775	    0.007164	    0.010939	   -0.048052	   -0.022389	   -0.070442	   -0.042540	   -0.099396	   -0.141936	    0.006055	    0.037400	    0.043455	    0.003564	    0.013597	    0.017162	    0.005086	    0.008559	    0.013644	    0.004650	    0.006601	    0.011251	    0.002708	    0.007123	    0.009832	   -0.001461	    0.001976	    0.000515	   -0.029438	    0.006622	   -0.022817	   -0.085905	   -0.174174	   -0.260079	    0.014938	    0.031669	    0.046607	    0.010531	    0.023080	    0.033611	   -0.004718	    0.005343	    0.000626	    0.001995	    0.005481	    0.007476	   -0.016180	   -0.014931	   -0.031110	    0.002703	    0.006848	    0.009550	   -0.027237	   -0.024382	   -0.051620
     7.500	0	0	    0	    0.028744	    0.048810	    0.077554	    0.000611	   -0.011390	   -0.010779	    0.014272	   -0.000260	    0.014012	    0.010915	    0.003019	    0.013934	    0.013948	    0.004830	    0.018779	   -0.039888	   -0.023396	   -0.063285	   -0.038584	   -0.096703	   -0.135287	    0.022310	    0.056199	    0.078509	   -0.004705	    0.022769	    0.018064	    0.011971	    0.011388	    0.023359	    0.013893	    0.008419	    0.022312	    0.010420	    0.007448	    0.017868	    0.008400	    0.003826	    0.012226	   -0.022972	    0.009424	   -0.013547	   -0.095621	   -0.167634	   -0.263255	    0.000526	    0.055843	    0.056369	    0.013021	    0.033356	    0.046376	    0.003631	    0.008762	    0.012394	    0.009629	    0.009060	    0.018690	   -0.007404	   -0.013814	   -0.021219	    0.013791	    0.009615	    0.023406	   -0.044914	   -0.021540	   -0.066454
     7.575	0	0	    0	    0.011765	    0.041620	    0.053385	    0.009372	   -0.009479	   -0.000107	    0.017105	    0.000842	    0.017946	    0.013995	    0.003371	    0.017366	    0.015852	    0.006613	    0.022465	   -0.037286	   -0.022369	   -0.059655	   -0.035288	   -0.094832	   -0.130120	    0.020112	    0.052523	    0.072635	   -0.018663	    0.014752	   -0.003911	    0.012742	    0.011463	    0.024205	    0.014735	    0.008307	    0.023041	    0.010586	    0.010184	    0.020770	    0.010712	    0.004292	    0.015004	   -0.029137	    0.011959	   -0.017178	   -0.095552	   -0.194921	   -0.290473	   -0.034955	    0.011050	   -0.023905	    0.010930	    0.029540	    0.040470	    0.005885	    0.007744	    0.013629	    0.009926	    0.010373	    0.020300	   -0.005924	   -0.012117	   -0.018041	    0.017480	    0.012947	    0.030427	   -0.082046	   -0.043580	   -0.125626
     7.650	0	0	    0	   -0.009011	    0.009997	    0.000986	    0.021030	    0.007840	    0.028870	    0.017285	    0.004000	    0.021285	    0.014922	    0.004156	    0.019078	    0.015601	    0.008343	    0.023944	   -0.031054	   -0.019873	   -0.050926	   -0.040302	   -0.086268	   -0.126570	   -0.051482	    0.011018	   -0.040464	   -0.027770	   -0.022002	   -0.049772	    0.013850	    0.009879	    0.023729	    0.013686	    0.007641	    0.021327	    0.012156	    0.009337	    0.021493	    0.009640	    0.005040	    0.014681	   -0.027233	    0.009018	   -0.018215	   -0.126228	   -0.236864	   -0.363091	   -0.016957	    0.009187	   -0.007769	    0.011734	    0.021834	    0.033569	    0.007703	    0.009456	    0.017159	    0.006288	    0.011196	    0.017484	   -0.006807	   -0.010916	   -0.017724	    0.025525	    0.019940	    0.045465	   -0.118771	   -0.082688	   -0.201459
     7.725	0	0	    0	   -0.026563	    0.016940	   -0.009622	    0.020151	    0.021801	    0.041952	    0.018100	    0.005363	    0.023463	    0.015884	    0.002940	    0.018823	    0.015054	    0.004758	    0.019812	   -0.031505	   -0.015570	   -0.047074	   -0.042407	   -0.080415	   -0.122822	   -0.089761	   -0.053323	   -0.143085	   -0.026612	   -0.025269	   -0.051880	    0.014252	    0.010495	    0.024747	    0.014816	    0.007252	    0.022068	    0.010790	    0.007436	    0.018226	    0.008243	    0.004307	    0.012550	   -0.025574	    0.009338	   -0.016236	   -0.122977	   -0.255165	   -0.378142	   -0.029094	    0.033103	    0.004010	    0.014746	    0.046615	    0.061362	    0.007317	    0.010106	    0.017423	    0.007352	    0.010504	    0.017856	   -0.007328	   -0.012378	   -0.019707	    0.025325	    0.025559	    0.050884	   -0.130915	   -0.091636	   -0.222552
     7.800	0	0	    0	   -0.050583	   -0.003103	   -0.053686	    0.014893	    0.017428	    0.032321	    0.018538	    0.004294	    0.022832	    0.019094	    0.000522	    0.019616	    0.018443	    0.004698	    0.023141	   -0.031836	   -0.015916	   -0.047753	   -0.038825	   -0.086576	   -0.125401	   -0.068731	   -0.072640	   -0.141371	   -0.023784	   -0.040632	   -0.064416	    0.013324	    0.011385	    0.024709	    0.014241	    0.008602	    0.022843	    0.011963	    0.008672	    0.020635	    0.008895	    0.004612	    0.013507	   -0.026353	    0.011813	   -0.014539	   -0.102368	   -0.250111	   -0.352479	   -0.043182	   -0.001792	   -0.044974	   -0.000310	    0.029287	    0.028976	    0.001823	    0.010864	    0.012687	    0.007323	    0.010108	    0.017431	   -0.007095	   -0.012251	   -0.019347	    0.021891	    0.024194	    0.046084	   -0.098736	   -0.096215	   -0.194952
     7.875	0	0	    0	    0.002944	   -0.010528	   -0.007584	    0.003777	   -0.002629	    0.001148	    0.016358	    0.001532	    0.017890	    0.014997	    0.002769	    0.017766	    0.017437	    0.003470	    0.020907	   -0.040128	   -0.018719	   -0.058847	   -0.036643	   -0.097210	   -0.133853	    0.014606	   -0.014500	    0.000107	   -0.002524	    0.004149	    0.001625	    0.010273	    0.011712	    0.021985	    0.010987	    0.009392	    0.020380	    0.012867	    0.006845	    0.019712	    0.008137	    0.003412	    0.011549	   -0.028898	    0.014050	   -0.014848	   -0.088513	   -0.199022	   -0.287535	   -0.025088	   -0.022890	   -0.047977	    0.004354	    0.014316	    0.018670	   -0.001311	    0.008289	    0.006978	    0.004522	    0.009857	    0.014380	   -0.008983	   -0.012503	   -0.021486	    0.010951	    0.015732	    0.026684	   -0.033108	   -0.059459	   -0.092567
     7.950	0	0	    0	    0.027890	    0.035227	    0.063118	   -0.002023	   -0.009142	   -0.011165	    0.011488	    0.001603	    0.013090	    0.011540	    0.006012	    0.017552	    0.014024	    0.005520	    0.019543	   -0.044269	   -0.021337	   -0.065605	   -0.041875	   -0.097572	   -0.139447	    0.016519	    0.048474	    0.064993	    0.009046	    0.015750	    0.024796	    0.006567	    0.011522	    0.018089	    0.007334	    0.009660	    0.016994	    0.009636	    0.010705	    0.020341	    0.005524	    0.004106	    0.009630	   -0.033404	    0.014694	   -0.018710	   -0.081275	   -0.173741	   -0.255016	    0.015267	    0.027739	    0.043007	    0.014189	    0.031711	    0.045900	   -0.003099	    0.006990	    0.003891	    0.003679	    0.007826	    0.011505	   -0.009859	   -0.012774	   -0.022633	    0.007137	    0.011995	    0.019133	   -0.022276	   -0.024879	   -0.047155
     8.025	0	0	    0	    0.030509	    0.047898	    0.078406	   -0.005969	   -0.011217	   -0.017187	    0.010095	   -0.000409	    0.009685	    0.008287	    0.006239	    0.014526	    0.011957	    0.007402	    0.019359	   -0.047050	   -0.022330	   -0.069379	   -0.042383	   -0.099809	   -0.142192	    0.016168	    0.054799	    0.070967	    0.001464	    0.026030	    0.027495	    0.003877	    0.011096	    0.014974	    0.005573	    0.008007	    0.013580	    0.010096	    0.008310	    0.018406	    0.002330	    0.004155	    0.006485	   -0.033026	    0.011603	   -0.021423	   -0.083348	   -0.171129	   -0.254476	    0.020110	    0.057989	    0.078099	    0.012537	    0.034136	    0.046672	   -0.006865	    0.007505	    0.000640	    0.002224	    0.007462	    0.009686	   -0.012306	   -0.011847	   -0.024153	    0.004086	    0.010965	    0.015051	   -0.030798	   -0.017461	   -0.048259
     8.100	0	0	    0	    0.021485	    0.049038	    0.070522	   -0.000435	   -0.013077	   -0.013511	    0.010254	   -0.001996	    0.008258	    0.006545	    0.002867	    0.009411	    0.009868	    0.007493	    0.017360	   -0.047106	   -0.024170	   -0.071276	   -0.042578	   -0.099525	   -0.142103	   -0.017687	    0.070768	    0.053081	   -0.026158	    0.020238	   -0.005920	    0.002209	    0.010604	    0.012813	    0.003526	    0.006884	    0.010410	    0.007627	    0.007152	    0.014779	   -0.000254	    0.003913	    0.003659	   -0.035352	    0.011589	   -0.023763	   -0.108049	   -0.176733	   -0.284783	   -0.037158	    0.055262	    0.018105	    0.002892	    0.031231	    0.034123	   -0.008951	    0.006534	   -0.002417	   -0.000852	    0.008468	    0.007616	   -0.013322	   -0.013212	   -0.026535	    0.003745	    0.009411	    0.013156	   -0.078953	   -0.028020	   -0.106973
     8.175	0	0	    0	   -0.026778	    0.014857	   -0.011921	    0.014021	   -0.003211	    0.010810	    0.013449	   -0.001662	    0.011787	    0.003871	    0.004843	    0.008714	    0.007891	    0.006999	    0.014890	   -0.038671	   -0.025752	   -0.064423	   -0.042168	   -0.095665	   -0.137832	   -0.047507	    0.023179	   -0.024327	   -0.040285	   -0.008671	   -0.048956	    0.004754	    0.007243	    0.011997	    0.007295	    0.003804	    0.011099	    0.004804	    0.008929	    0.013733	   -0.001050	    0.001099	    0.000049	   -0.029495	    0.004138	   -0.025357	   -0.130067	   -0.229656	   -0.359723	   -0.031546	   -0.005850	   -0.037396	   -0.009779	    0.024818	    0.015039	    0.001663	    0.003850	    0.005513	    0.003273	    0.006178	    0.009451	   -0.015223	   -0.013730	   -0.028953	    0.012792	    0.010061	    0.022853	   -0.128339	   -0.076131	   -0.204470
     8.250	0	0	    0	   -0.021488	    0.015156	   -0.006332	    0.021883	    0.017248	    0.039131	    0.019563	    0.002008	    0.021571	    0.014192	    0.001623	    0.015815	    0.012919	    0.007753	    0.020673	   -0.031040	   -0.015878	   -0.046918	   -0.037050	   -0.087884	   -0.124935	   -0.084103	   -0.039116	   -0.123220	   -0.021252	   -0.025901	   -0.047154	    0.015668	    0.009210	    0.024878	    0.016187	    0.006735	    0.022922	    0.009927	    0.008074	    0.018001	    0.009372	    0.001294	    0.010666	   -0.027608	    0.010935	   -0.016674	   -0.126069	   -0.258948	   -0.385017	   -0.023208	    0.022589	   -0.000618	    0.020528	    0.040733	    0.061261	    0.011297	    0.009867	    0.021164	    0.009866	    0.009509	    0.019375	   -0.005824	   -0.015127	   -0.020951	    0.027189	    0.022939	    0.050129	   -0.131287	   -0.091909	   -0.223196
     8.325	0	0	    0	   -0.047300	    0.012478	   -0.034823	    0.018244	    0.019911	    0.038155	    0.020969	    0.003171	    0.024140	    0.017723	    0.004951	    0.022673	    0.017549	    0.008495	    0.026044	   -0.025976	   -0.017543	   -0.043519	   -0.032355	   -0.093635	   -0.125989	   -0.082782	   -0.057951	   -0.140733	   -0.027451	   -0.031767	   -0.059218	    0.017341	    0.010020	    0.027360	    0.017082	    0.008582	    0.025665	    0.012901	    0.010904	    0.023806	    0.010492	    0.005041	    0.015532	   -0.018283	    0.008098	   -0.010185	   -0.118201	   -0.264362	   -0.382563	   -0.046933	    0.013288	   -0.033645	    0.002504	    0.043877	    0.046381	    0.009431	    0.011219	    0.020650	    0.009719	    0.010935	    0.020654	   -0.006059	   -0.010903	   -0.016961	    0.028077	    0.028236	    0.056313	   -0.128455	   -0.105016	   -0.233471
     8.400	0	0	    0	   -0.020712	   -0.026198	   -0.046910	    0.004188	    0.005450	    0.009638	    0.018458	    0.003297	    0.021754	    0.017303	    0.006491	    0.023794	    0.020022	    0.006985	    0.027007	   -0.037095	   -0.015481	   -0.052576	   -0.039443	   -0.091624	   -0.131067	   -0.004899	   -0.052802	   -0.057701	    0.005332	   -0.035752	   -0.030421	    0.012185	    0.013346	    0.025530	    0.016273	    0.008507	    0.024779	    0.012556	    0.010886	    0.023442	    0.009695	    0.004982	    0.014677	   -0.028564	    0.016289	   -0.012275	   -0.087625	   -0.232713	   -0.320338	   -0.045485	   -0.021598	   -0.067083	   -0.000819	    0.023217	    0.022398	    0.003298	    0.009289	    0.012587	    0.008950	    0.009805	    0.018756	   -0.006598	   -0.013100	   -0.019698	    0.013842	    0.024485	    0.038327	   -0.069767	   -0.087274	   -0.157041
     8.475	0	0	    0	    0.023409	    0.017856	    0.041265	    0.001894	   -0.007540	   -0.005646	    0.015914	    0.000707	    0.016620	    0.015751	    0.003935	    0.019686	    0.016594	    0.009597	    0.026191	   -0.039110	   -0.019373	   -0.058484	   -0.038504	   -0.098508	   -0.137012	    0.023268	    0.039322	    0.062590	    0.006962	    0.014287	    0.021249	    0.011611	    0.011784	    0.023395	    0.014525	    0.008378	    0.022903	    0.013591	    0.009806	    0.023397	    0.009810	    0.004000	    0.013810	   -0.023900	    0.014781	   -0.009120	   -0.083078	   -0.192994	   -0.276073	   -0.002603	   -0.006675	   -0.009279	    0.013239	    0.021497	    0.034737	    0.003251	    0.007649	    0.010899	    0.008471	    0.009180	    0.017651	   -0.006942	   -0.013144	   -0.020086	    0.014545	    0.012538	    0.027083	   -0.039918	   -0.039321	   -0.079239
     8.550	0	0	    0	    0.037717	    0.046216	    0.083932	   -0.002296	   -0.009867	   -0.012163	    0.016149	   -0.001337	    0.014811	    0.013662	    0.007071	    0.020733	    0.016016	    0.008909	    0.024926	   -0.041880	   -0.020559	   -0.062439	   -0.038239	   -0.103617	   -0.141856	    0.027544	    0.061032	    0.088576	    0.010389	    0.019091	    0.029481	    0.010686	    0.011629	    0.022316	    0.013157	    0.008017	    0.021174	    0.013929	    0.009150	    0.023079	    0.009892	    0.003660	    0.013552	   -0.025906	    0.013604	   -0.012303	   -0.083259	   -0.179310	   -0.262569	    0.009889	    0.041427	    0.051316	    0.016185	    0.035041	    0.051226	    0.001644	    0.007430	    0.009073	    0.008290	    0.008572	    0.016861	   -0.005213	   -0.014099	   -0.019312	    0.012630	    0.012071	    0.024700	   -0.044637	   -0.022903	   -0.067540
     8.625	0	0	    0	    0.025750	    0.050877	    0.076627	    0.000182	   -0.012152	   -0.011970	    0.014268	    0.000093	    0.014361	    0.014299	    0.003147	    0.017445	    0.015542	    0.007277	    0.022819	   -0.042642	   -0.022267	   -0.064910	   -0.040083	   -0.102851	   -0.142934	    0.012213	    0.068623	    0.080837	   -0.003716	    0.017193	    0.013477	    0.007826	    0.011905	    0.019731	    0.010347	    0.008015	    0.018361	    0.012383	    0.008139	    0.020522	    0.008030	    0.003022	    0.011052	   -0.024108	    0.009902	   -0.014206	   -0.102872	   -0.181795	   -0.284667	   -0.028467	    0.035430	    0.006962	    0.010330	    0.029921	    0.040251	   -0.001314	    0.006408	    0.005094	    0.006274	    0.009164	    0.015438	   -0.006230	   -0.014597	   -0.020827	    0.011823	    0.010943	    0.022766	   -0.081795	   -0.029832	   -0.111627
     8.700	0	0	    0	   -0.008043	    0.031123	    0.023079	    0.011355	   -0.005016	    0.006340	    0.016213	   -0.000408	    0.015805	    0.012242	    0.003956	    0.016199	    0.014936	    0.006066	    0.021002	   -0.040588	   -0.021194	   -0.061782	   -0.042648	   -0.094407	   -0.137054	   -0.008275	    0.044794	    0.036519	   -0.036962	    0.011595	   -0.025367	    0.006292	    0.009982	    0.016273	    0.009109	    0.006367	    0.015476	    0.010680	    0.006895	    0.017575	    0.004963	    0.002803	    0.007766	   -0.031905	    0.011543	   -0.020362	   -0.126979	   -0.222425	   -0.349404	   -0.033449	   -0.011778	   -0.045226	   -0.001819	    0.025165	    0.023346	    0.000888	    0.005514	    0.006402	    0.002984	    0.009042	    0.012026	   -0.008582	   -0.015092	   -0.023673	    0.015707	    0.013390	    0.029097	   -0.137056	   -0.069233	   -0.206288
     8.775	0	0	    0	   -0.020978	    0.015148	   -0.005831	    0.015531	    0.016443	    0.031974	    0.015519	    0.001883	    0.017402	    0.014239	    0.001087	    0.015326	    0.015089	    0.002772	    0.017861	   -0.038272	   -0.017835	   -0.056107	   -0.039543	   -0.094243	   -0.133786	   -0.103675	   -0.030155	   -0.133830	   -0.031142	   -0.024752	   -0.055895	    0.005786	    0.008309	    0.014095	    0.009026	    0.005352	    0.014377	    0.011723	    0.006706	    0.018429	    0.001402	    0.003264	    0.004666	   -0.029923	    0.007994	   -0.021929	   -0.128887	   -0.264481	   -0.393368	   -0.027081	    0.022418	   -0.004663	    0.004262	    0.041063	    0.045324	   -0.000543	    0.006627	    0.006084	    0.000924	    0.008641	    0.009565	   -0.012529	   -0.012392	   -0.024921	    0.018548	    0.021534	    0.040082	   -0.143798	   -0.091627	   -0.235425
     8.850	0	0	    0	   -0.050429	    0.017546	   -0.032884	    0.010553	    0.020699	    0.031252	    0.013102	    0.003293	    0.016395	    0.009588	    0.003749	    0.013337	    0.010458	    0.005648	    0.016106	   -0.039691	   -0.018046	   -0.057737	   -0.046943	   -0.088657	   -0.135600	   -0.107029	   -0.057341	   -0.164370	   -0.037509	   -0.035201	   -0.072710	    0.004734	    0.008971	    0.013705	    0.007784	    0.005456	    0.013240	    0.008290	    0.009464	    0.017754	   -0.000378	    0.002346	    0.001967	   -0.030371	    0.005841	   -0.024529	   -0.124961	   -0.269309	   -0.394270	   -0.055346	    0.025566	   -0.029780	   -0.010142	    0.042773	    0.032631	   -0.003050	    0.006873	    0.003824	   -0.000802	    0.008451	    0.007649	   -0.014142	   -0.013953	   -0.028095	    0.014980	    0.022993	    0.037973	   -0.145226	   -0.102684	   -0.247910
     8.925	0	0	    0	   -0.056932	   -0.017988	   -0.074920	   -0.001754	    0.010428	    0.008674	    0.012382	   -0.000347	    0.012034	    0.008657	    0.002143	    0.010800	    0.009941	    0.002995	    0.012936	   -0.044794	   -0.019254	   -0.064048	   -0.042227	   -0.100222	   -0.142449	   -0.063503	   -0.066350	   -0.129854	   -0.012726	   -0.044485	   -0.057211	    0.003325	    0.010086	    0.013411	    0.006931	    0.005880	    0.012810	    0.006473	    0.009735	    0.016208	   -0.000562	    0.000539	   -0.000022	   -0.027282	    0.006915	   -0.020367	   -0.096293	   -0.251334	   -0.347627	   -0.060530	   -0.013098	   -0.073627	   -0.014426	    0.017054	    0.002628	   -0.006278	    0.004879	   -0.001398	    0.001092	    0.006636	    0.007728	   -0.016252	   -0.014388	   -0.030640	    0.002355	    0.021673	    0.024028	   -0.099195	   -0.090465	   -0.189660
     9.000	0	0	    0	    0.012971	    0.005306	    0.018277	    0.001519	   -0.004991	   -0.003472	    0.015490	   -0.001073	    0.014417	    0.014671	   -0.001257	    0.013414	    0.015244	    0.005405	    0.020649	   -0.040447	   -0.021250	   -0.061698	   -0.038037	   -0.101804	   -0.139841	    0.023028	    0.014239	    0.037267	   -0.007356	    0.017445	    0.010089	    0.011607	    0.010305	    0.021913	    0.016143	    0.006712	    0.022855	    0.009753	    0.008292	    0.018046	    0.007612	    0.000094	    0.007706	   -0.025720	    0.012326	   -0.013394	   -0.087394	   -0.209395	   -0.296789	   -0.026764	   -0.021162	   -0.047926	    0.007893	    0.011312	    0.019206	    0.003699	    0.006884	    0.010583	    0.010960	    0.006768	    0.017727	   -0.008675	   -0.017649	   -0.026323	    0.011352	    0.010763	    0.022115	   -0.051253	   -0.049550	   -0.100803
     9.075	0	0	    0	    0.036581	    0.039746	    0.076327	   -0.000784	   -0.009361	   -0.010146	    0.016927	   -0.001901	    0.015026	    0.017125	    0.005183	    0.022308	    0.019238	    0.008201	    0.027439	   -0.041967	   -0.019988	   -0.061955	   -0.037350	   -0.104236	   -0.141586	    0.027475	    0.059463	    0.086938	    0.010706	    0.016488	    0.027193	    0.011271	    0.011961	    0.023232	    0.016833	    0.008578	    0.025411	    0.016333	    0.009089	    0.025423	    0.009823	    0.004620	    0.014443	   -0.026941	    0.013642	   -0.013298	   -0.076708	   -0.190156	   -0.266864	    0.003310	    0.030082	    0.033392	    0.015611	    0.030602	    0.046214	    0.005112	    0.008062	    0.013175	    0.011660	    0.007779	    0.019439	   -0.006041	   -0.013164	   -0.019205	    0.012860	    0.013428	    0.026288	   -0.033030	   -0.026967	   -0.059997
     9.150	0	0	    0	    0.033822	    0.055228	    0.089050	   -0.004414	   -0.010536	   -0.014950	    0.014044	    0.000046	    0.014090	    0.015180	    0.006691	    0.021871	    0.018261	    0.007489	    0.025750	   -0.046403	   -0.019286	   -0.065689	   -0.047068	   -0.098199	   -0.145268	    0.022009	    0.067853	    0.089862	   -0.000255	    0.022255	    0.022000	    0.008966	    0.011828	    0.020793	    0.013258	    0.008393	    0.021651	    0.014108	    0.012591	    0.026699	    0.008516	    0.004011	    0.012527	   -0.031961	    0.016463	   -0.015498	   -0.095743	   -0.181453	   -0.277197	   -0.011835	    0.052608	    0.040773	    0.009140	    0.035244	    0.044384	    0.001795	    0.006981	    0.008776	    0.008449	    0.008373	    0.016822	   -0.005579	   -0.014456	   -0.020034	    0.010510	    0.011119	    0.021629	   -0.057833	   -0.025839	   -0.083672
     9.225	0	0	    0	    0.024844	    0.045780	    0.070624	    0.000983	   -0.011331	   -0.010348	    0.016079	   -0.001561	    0.014518	    0.017179	    0.001181	    0.018360	    0.017468	    0.006527	    0.023995	   -0.041357	   -0.023027	   -0.064384	   -0.040744	   -0.100405	   -0.141149	    0.022608	    0.054651	    0.077259	   -0.010044	    0.015555	    0.005511	    0.008063	    0.010471	    0.018534	    0.013460	    0.007303	    0.020763	    0.014633	    0.009401	    0.024034	    0.007117	    0.002316	    0.009433	   -0.030674	    0.012016	   -0.018658	   -0.104966	   -0.216741	   -0.321706	   -0.047499	    0.024448	   -0.023051	    0.004078	    0.027935	    0.032013	    0.003853	    0.003920	    0.007773	    0.008153	    0.008896	    0.017049	   -0.007919	   -0.014221	   -0.022140	    0.015460	    0.009390	    0.024850	   -0.114793	   -0.052452	   -0.167245
     9.300	0	0	    0	   -0.000841	    0.019636	    0.018795	    0.015733	    0.008175	    0.023909	    0.017113	    0.001584	    0.018697	    0.017720	    0.002112	    0.019832	    0.018329	    0.006010	    0.024339	   -0.037274	   -0.017845	   -0.055119	   -0.044752	   -0.091407	   -0.136159	   -0.067115	    0.028016	   -0.039099	   -0.028206	   -0.014624	   -0.042830	    0.010991	    0.008224	    0.019215	    0.014434	    0.006373	    0.020807	    0.016995	    0.007563	    0.024558	    0.006469	    0.003837	    0.010306	   -0.032095	    0.012603	   -0.019492	   -0.133592	   -0.261944	   -0.395536	   -0.022895	    0.008060	   -0.014836	    0.012714	    0.022348	    0.035061	    0.007096	    0.006719	    0.013815	    0.007744	    0.008650	    0.016394	   -0.007528	   -0.013002	   -0.020530	    0.021676	    0.020362	    0.042038	   -0.134882	   -0.087799	   -0.222680
     9.375	0	0	    0	   -0.022564	    0.026041	    0.003477	    0.015558	    0.020712	    0.036270	    0.017485	    0.002145	    0.019630	    0.017743	    0.002418	    0.020161	    0.014609	    0.009274	    0.023883	   -0.034095	   -0.018458	   -0.052553	   -0.040053	   -0.094313	   -0.134367	   -0.097040	   -0.048559	   -0.145599	   -0.033862	   -0.026542	   -0.060404	    0.009503	    0.009115	    0.018618	    0.013882	    0.006382	    0.020263	    0.014843	    0.010283	    0.025126	    0.004621	    0.003391	    0.008012	   -0.029039	    0.006279	   -0.022760	   -0.136975	   -0.279463	   -0.416438	   -0.038688	    0.044621	    0.005933	    0.008655	    0.051914	    0.060568	    0.004512	    0.007479	    0.011990	    0.005846	    0.008791	    0.014637	   -0.011300	   -0.010603	   -0.021903	    0.020477	    0.025113	    0.045589	   -0.153830	   -0.091994	   -0.245824
     9.450	0	0	    0	   -0.055154	    0.004315	   -0.050839	    0.005954	    0.018471	    0.024424	    0.014373	    0.003734	    0.018107	    0.014029	    0.005139	    0.019167	    0.012796	    0.009069	    0.021865	   -0.041701	   -0.013331	   -0.055032	   -0.048443	   -0.088765	   -0.137208	   -0.087060	   -0.064515	   -0.151575	   -0.034490	   -0.041951	   -0.076441	    0.006799	    0.010665	    0.017464	    0.012106	    0.007022	    0.019128	    0.011527	    0.012642	    0.024169	    0.002844	    0.002700	    0.005543	   -0.034716	    0.016226	   -0.018490	   -0.118776	   -0.277520	   -0.396296	   -0.060246	    0.008529	   -0.051716	   -0.012862	    0.039283	    0.026420	   -0.000354	    0.007131	    0.006777	    0.004285	    0.008124	    0.012409	   -0.011463	   -0.013477	   -0.024940	    0.013650	    0.026556	    0.040207	   -0.135366	   -0.098504	   -0.233871
     9.525	0	0	    0	   -0.016373	   -0.014395	   -0.030768	   -0.003936	    0.000471	   -0.003465	    0.013234	    0.000092	    0.013326	    0.009933	    0.005594	    0.015527	    0.009243	    0.012804	    0.022047	   -0.046877	   -0.018224	   -0.065100	   -0.049007	   -0.096975	   -0.145982	   -0.007972	   -0.029043	   -0.037014	   -0.006253	   -0.020142	   -0.026395	    0.002653	    0.010985	    0.013637	    0.008407	    0.008358	    0.016765	    0.011161	    0.012190	    0.023352	    0.001113	    0.002676	    0.003789	   -0.034936	    0.012401	   -0.022535	   -0.102066	   -0.233085	   -0.335150	   -0.056333	   -0.021107	   -0.077440	   -0.011729	    0.015850	    0.004122	   -0.005747	    0.006239	    0.000492	    0.001720	    0.008264	    0.009984	   -0.013400	   -0.013290	   -0.026690	    0.003648	    0.014910	    0.018558	   -0.081413	   -0.073331	   -0.154743
     9.600	0	0	    0	    0.009655	    0.022559	    0.032214	   -0.007175	   -0.006718	   -0.013893	    0.010671	   -0.002724	    0.007947	    0.012296	    0.001341	    0.013637	    0.011985	    0.007933	    0.019918	   -0.049438	   -0.021528	   -0.070965	   -0.046776	   -0.103507	   -0.150283	    0.002595	    0.038621	    0.041215	   -0.014142	    0.020147	    0.006005	   -0.000367	    0.010226	    0.009859	    0.005868	    0.007996	    0.013863	    0.010103	    0.012161	    0.022264	   -0.001570	    0.003051	    0.001481	   -0.033898	    0.006932	   -0.026967	   -0.100990	   -0.208947	   -0.309937	   -0.030618	    0.002778	   -0.027840	   -0.007997	    0.023280	    0.015283	   -0.007453	    0.006214	   -0.001239	   -0.000076	    0.006430	    0.006354	   -0.015473	   -0.013676	   -0.029149	   -0.000226	    0.011929	    0.011703	   -0.059374	   -0.043627	   -0.103001
     9.675	0	0	    0	    0.022885	    0.041398	    0.064283	   -0.009469	   -0.010049	   -0.019518	    0.009328	   -0.003092	    0.006236	    0.009436	    0.001840	    0.011276	    0.012323	    0.004387	    0.016710	   -0.051315	   -0.023791	   -0.075106	   -0.048873	   -0.103900	   -0.152773	    0.005717	    0.054510	    0.060227	   -0.005495	    0.016187	    0.010692	    0.000755	    0.008630	    0.009385	    0.007690	    0.006091	    0.013781	    0.011009	    0.009650	    0.020658	   -0.002913	    0.001858	   -0.001055	   -0.034522	    0.005833	   -0.028689	   -0.099043	   -0.197445	   -0.296488	   -0.017545	    0.037889	    0.020344	   -0.001820	    0.027193	    0.025373	   -0.003043	    0.004188	    0.001145	    0.003217	    0.004731	    0.007948	   -0.016257	   -0.014492	   -0.030749	   -0.001270	    0.007872	    0.006601	   -0.060711	   -0.028612	   -0.089323
     9.750	0	0	    0	    0.027556	    0.047038	    0.074594	    0.000046	   -0.010884	   -0.010837	    0.015705	   -0.002133	    0.013572	    0.015480	   -0.000125	    0.015355	    0.017841	    0.006926	    0.024767	   -0.042072	   -0.023828	   -0.065900	   -0.042730	   -0.101213	   -0.143943	    0.018211	    0.062309	    0.080520	   -0.010452	    0.016155	    0.005703	    0.009868	    0.009659	    0.019527	    0.017779	    0.007124	    0.024903	    0.013207	    0.009146	    0.022354	    0.007193	    0.001172	    0.008365	   -0.030602	    0.010020	   -0.020582	   -0.102178	   -0.208559	   -0.310737	   -0.040461	    0.031736	   -0.008725	    0.004644	    0.023366	    0.028009	    0.006805	    0.005471	    0.012276	    0.012127	    0.007392	    0.019520	   -0.007686	   -0.016459	   -0.024145	    0.009928	    0.009464	    0.019392	   -0.082091	   -0.036363	   -0.118454
     9.825	0	0	    0	    0.006311	    0.034093	    0.040403	    0.009933	   -0.006085	    0.003849	    0.018163	   -0.000205	    0.017957	    0.020398	    0.001056	    0.021454	    0.019972	    0.009381	    0.029353	   -0.038161	   -0.021772	   -0.059933	   -0.037991	   -0.098506	   -0.136497	    0.015218	    0.049107	    0.064325	   -0.036353	    0.014397	   -0.021957	    0.012031	    0.010095	    0.022126	    0.018742	    0.008237	    0.026979	    0.018045	    0.009916	    0.027961	    0.009773	    0.003818	    0.013591	   -0.035129	    0.014429	   -0.020700	   -0.115972	   -0.226648	   -0.342620	   -0.045079	   -0.002873	   -0.047952	   -0.001091	    0.029861	    0.028770	    0.012411	    0.006158	    0.018569	    0.011298	    0.010377	    0.021675	   -0.006211	   -0.012925	   -0.019136	    0.016684	    0.016085	    0.032769	   -0.120469	   -0.057863	   -0.178332
     9.900	0	0	    0	   -0.005442	    0.026404	    0.020963	    0.016778	    0.016711	    0.033489	    0.017702	    0.002886	    0.020588	    0.020203	    0.002285	    0.022488	    0.015552	    0.013490	    0.029041	   -0.038191	   -0.014363	   -0.052554	   -0.044334	   -0.090646	   -0.134980	   -0.096249	   -0.005012	   -0.101261	   -0.040637	   -0.017570	   -0.058207	    0.012010	    0.010385	    0.022396	    0.017420	    0.008300	    0.025720	    0.018575	    0.012028	    0.030603	    0.007617	    0.004733	    0.012349	   -0.036644	    0.015239	   -0.021404	   -0.129986	   -0.269374	   -0.399360	   -0.024018	    0.028222	    0.004204	    0.016062	    0.037512	    0.053574	    0.009950	    0.008838	    0.018787	    0.009370	    0.009568	    0.018939	   -0.006475	   -0.012972	   -0.019447	    0.023030	    0.021525	    0.044555	   -0.140205	   -0.086339	   -0.226543
