 [File Information]      		 [Data Line]	36
Measured Date	2024/05/28 095658
ID		Version	11.0
Name	oceane_12	[HeaderType]	11.0/11.0
Comment	
[Measurement Info.]
Holder Location	       0
Block Design	Off     
Pre.Rest Time	       0
Task Time	       0
Pos.Rest Time	       0
Loop	       0
Averaging	       1
Total Points	     881
[.INF File]
Filename	Cognitive1.INF
[Condition-1]
HV Switching	OFF
 R1 ,R2 ,R3 ,R4 ,R5 ,R6 ,R7 ,R8 
 120.00, 70.00,120.00,100.00, 90.00, 70.00,120.00,120.00
 Gain(X1,X4,X16,X64)
 R1 ,R2 ,R3 ,R4 ,R5 ,R6 ,R7 ,R8 
 1,1,1,1,1,1,1,1
[Analysis Condition]
Smoothed Type	None            
Smoothed Points	       0
Smoothed Loop	       0
Baseline Method	None            
Baseline location	
[Text Info.]
Output Mode	Continious      	Task No.		Data Type	Hb      
Time Range	    0.00	   66.00	Averaing	1
(1,3)(5,3)(5,7)(2,7)(2,4)(6,4)(6,8)(1,1)(3,3)(5,5)(7,7)(2,2)(4,4)(6,6)(8,8)(3,1)(3,5)(7,5)(7,2)(4,2)(4,6)(8,6)
         	     	     	     	    ch- 1	    ch- 1	    ch- 1	    ch- 2	    ch- 2	    ch- 2	    ch- 3	    ch- 3	    ch- 3	    ch- 4	    ch- 4	    ch- 4	    ch- 5	    ch- 5	    ch- 5	    ch- 6	    ch- 6	    ch- 6	    ch- 7	    ch- 7	    ch- 7	    ch- 8	    ch- 8	    ch- 8	    ch- 9	    ch- 9	    ch- 9	    ch-10	    ch-10	    ch-10	    ch-11	    ch-11	    ch-11	    ch-12	    ch-12	    ch-12	    ch-13	    ch-13	    ch-13	    ch-14	    ch-14	    ch-14	    ch-15	    ch-15	    ch-15	    ch-16	    ch-16	    ch-16	    ch-17	    ch-17	    ch-17	    ch-18	    ch-18	    ch-18	    ch-19	    ch-19	    ch-19	    ch-20	    ch-20	    ch-20	    ch-21	    ch-21	    ch-21	    ch-22	    ch-22	    ch-22
Time(sec)	Task	Mark	Count	    oxyHb   	  deoxyHb	  totalHb	    oxyHb   	  deoxyHb	  totalHb	    oxyHb   	  deoxyHb	  totalHb	    oxyHb   	  deoxyHb	  totalHb	    oxyHb   	  deoxyHb	  totalHb	    oxyHb   	  deoxyHb	  totalHb	    oxyHb   	  deoxyHb	  totalHb	    oxyHb   	  deoxyHb	  totalHb	    oxyHb   	  deoxyHb	  totalHb	    oxyHb   	  deoxyHb	  totalHb	    oxyHb   	  deoxyHb	  totalHb	    oxyHb   	  deoxyHb	  totalHb	    oxyHb   	  deoxyHb	  totalHb	    oxyHb   	  deoxyHb	  totalHb	    oxyHb   	  deoxyHb	  totalHb	    oxyHb   	  deoxyHb	  totalHb	    oxyHb   	  deoxyHb	  totalHb	    oxyHb   	  deoxyHb	  totalHb	    oxyHb   	  deoxyHb	  totalHb	    oxyHb   	  deoxyHb	  totalHb	    oxyHb   	  deoxyHb	  totalHb	    oxyHb   	  deoxyHb	  totalHb
     0.000	0	0Z	    0	    0.000000	    0.000000	    0.000000	    0.000000	    0.000000	    0.000000	    0.000000	    0.000000	    0.000000	    0.000000	    0.000000	    0.000000	    0.000000	    0.000000	    0.000000	    0.000000	    0.000000	    0.000000	    0.000000	    0.000000	    0.000000	    0.000000	    0.000000	    0.000000	    0.000000	    0.000000	    0.000000	    0.000000	    0.000000	    0.000000	    0.000000	    0.000000	    0.000000	    0.000000	    0.000000	    0.000000	    0.000000	    0.000000	    0.000000	    0.000000	    0.000000	    0.000000	    0.000000	    0.000000	    0.000000	    0.000000	    0.000000	    0.000000	    0.000000	    0.000000	    0.000000	    0.000000	    0.000000	    0.000000	    0.000000	    0.000000	    0.000000	    0.000000	    0.000000	    0.000000	    0.000000	    0.000000	    0.000000	    0.000000	    0.000000	    0.000000
     0.075	0	0	    0	    0.019964	   -0.020828	   -0.000864	   -0.001143	   -0.005380	   -0.006523	    0.008128	    0.000050	    0.008177	    0.009854	    0.000941	    0.010795	    0.005652	   -0.001628	    0.004025	    0.012195	    0.000617	    0.012812	    0.017080	    0.011687	    0.028767	   -0.008309	    0.033768	    0.025459	   -0.013707	   -0.020837	   -0.034544	   -0.004457	   -0.002238	   -0.006695	    0.003763	   -0.006352	   -0.002588	   -0.003643	   -0.005354	   -0.008996	   -0.004441	   -0.008442	   -0.012883	    0.004359	   -0.010608	   -0.006249	    0.015117	   -0.014846	    0.000271	    0.009968	    0.017718	    0.027686	   -0.001138	   -0.003742	   -0.004880	    0.001049	   -0.004963	   -0.003914	    0.018010	    0.010098	    0.028107	    0.006744	    0.000500	    0.007244	   -0.006761	   -0.009474	   -0.016236	    0.029939	    0.014572	    0.044511
     0.150	0	0	    0	    0.023389	   -0.016843	    0.006546	    0.000701	   -0.008326	   -0.007625	    0.018425	    0.004044	    0.022469	    0.020153	    0.008403	    0.028555	    0.020690	    0.007754	    0.028444	    0.030084	    0.010269	    0.040352	    0.035932	    0.025575	    0.061507	    0.021878	    0.030077	    0.051955	   -0.030257	   -0.028296	   -0.058553	   -0.004689	   -0.012134	   -0.016823	    0.011540	   -0.003261	    0.008279	    0.000288	   -0.009777	   -0.009488	   -0.003054	   -0.009205	   -0.012259	    0.009096	   -0.009465	   -0.000369	    0.013302	   -0.002672	    0.010630	    0.020119	    0.042998	    0.063117	   -0.002619	   -0.004018	   -0.006637	   -0.002300	   -0.008566	   -0.010866	    0.028007	    0.018416	    0.046423	    0.006001	   -0.000366	    0.005635	   -0.006876	   -0.011614	   -0.018490	    0.044588	    0.059918	    0.104506
     0.225	0	0	    0	    0.014476	   -0.005571	    0.008905	    0.001349	   -0.007514	   -0.006165	    0.025826	    0.008927	    0.034753	    0.032100	    0.019595	    0.051695	    0.036091	    0.024324	    0.060415	    0.047116	    0.025826	    0.072941	    0.050648	    0.047025	    0.097674	    0.023507	    0.044881	    0.068388	   -0.040762	   -0.035739	   -0.076501	   -0.010460	   -0.022015	   -0.032475	    0.019506	   -0.000063	    0.019443	    0.011366	   -0.003774	    0.007593	   -0.001293	   -0.004501	   -0.005794	    0.014821	    0.002131	    0.016952	    0.032501	    0.002727	    0.035228	    0.024263	    0.063657	    0.087920	   -0.000911	   -0.003286	   -0.004197	   -0.002815	   -0.014594	   -0.017409	    0.031142	    0.021947	    0.053090	    0.007026	   -0.003167	    0.003859	   -0.008738	   -0.005801	   -0.014539	    0.066638	    0.083120	    0.149758
     0.300	0	0	    0	    0.005677	    0.019284	    0.024961	    0.005774	   -0.007959	   -0.002185	    0.033008	    0.014226	    0.047234	    0.049554	    0.029264	    0.078818	    0.051378	    0.035121	    0.086499	    0.055576	    0.044513	    0.100089	    0.057692	    0.060736	    0.118428	    0.022990	    0.053481	    0.076471	   -0.030851	   -0.047712	   -0.078563	   -0.015426	   -0.029128	   -0.044554	    0.028126	    0.005117	    0.033242	    0.027129	    0.001189	    0.028318	    0.007135	   -0.001371	    0.005765	    0.019655	    0.012324	    0.031979	    0.034084	    0.006606	    0.040690	    0.028350	    0.068224	    0.096574	    0.004413	   -0.009771	   -0.005358	   -0.003378	   -0.018051	   -0.021429	    0.032838	    0.023247	    0.056085	    0.011292	   -0.007593	    0.003699	   -0.006373	   -0.007877	   -0.014250	    0.067600	    0.111203	    0.178803
     0.375	0	0	    0	    0.027634	    0.001501	    0.029135	    0.008339	   -0.003219	    0.005120	    0.039174	    0.020088	    0.059263	    0.071332	    0.039954	    0.111286	    0.069408	    0.042297	    0.111704	    0.064554	    0.056305	    0.120859	    0.049991	    0.074188	    0.124179	    0.027332	    0.046333	    0.073665	   -0.025150	   -0.044006	   -0.069156	   -0.012195	   -0.033447	   -0.045642	    0.031257	    0.009673	    0.040930	    0.043018	    0.007363	    0.050382	    0.014966	    0.006790	    0.021756	    0.024452	    0.020554	    0.045006	    0.027067	    0.006224	    0.033290	    0.028178	    0.067779	    0.095957	    0.009555	   -0.015396	   -0.005841	   -0.002627	   -0.019323	   -0.021950	    0.033400	    0.023157	    0.056557	    0.013387	   -0.007862	    0.005525	   -0.006172	   -0.005897	   -0.012068	    0.071155	    0.117771	    0.188925
     0.450	0	0	    0	    0.023030	    0.006654	    0.029684	    0.011215	   -0.000131	    0.011084	    0.048239	    0.024916	    0.073155	    0.088632	    0.058278	    0.146910	    0.083568	    0.063152	    0.146720	    0.078213	    0.070847	    0.149060	    0.056825	    0.068989	    0.125814	    0.024877	    0.044250	    0.069127	   -0.025402	   -0.038317	   -0.063719	   -0.013521	   -0.035845	   -0.049367	    0.037202	    0.013714	    0.050916	    0.055321	    0.018620	    0.073941	    0.024878	    0.019919	    0.044796	    0.024463	    0.023977	    0.048439	    0.023486	   -0.000155	    0.023331	    0.023837	    0.068632	    0.092469	    0.009709	   -0.015734	   -0.006025	   -0.003642	   -0.020956	   -0.024598	    0.034681	    0.023754	    0.058435	    0.015582	   -0.006986	    0.008596	   -0.006095	   -0.006583	   -0.012678	    0.069379	    0.116483	    0.185862
     0.525	0	0	    0	    0.012861	    0.018856	    0.031718	    0.015269	    0.001669	    0.016938	    0.051820	    0.035244	    0.087064	    0.103213	    0.075834	    0.179047	    0.101534	    0.077845	    0.179379	    0.090172	    0.080352	    0.170524	    0.057982	    0.062673	    0.120656	    0.016608	    0.048199	    0.064808	   -0.023444	   -0.040875	   -0.064319	   -0.010490	   -0.035804	   -0.046294	    0.041107	    0.018912	    0.060018	    0.066681	    0.026442	    0.093123	    0.034928	    0.031109	    0.066036	    0.028818	    0.019465	    0.048283	    0.028192	   -0.014639	    0.013553	    0.023937	    0.062282	    0.086219	    0.011914	   -0.017709	   -0.005795	   -0.003769	   -0.022041	   -0.025810	    0.033733	    0.023265	    0.056998	    0.018221	   -0.007574	    0.010647	   -0.004901	   -0.007094	   -0.011995	    0.071984	    0.117957	    0.189941
     0.600	0	0	    0	    0.012691	    0.011740	    0.024431	    0.015369	    0.004525	    0.019893	    0.051556	    0.042726	    0.094281	    0.114327	    0.081854	    0.196182	    0.116209	    0.085305	    0.201514	    0.093046	    0.086274	    0.179319	    0.052533	    0.060576	    0.113109	    0.014292	    0.041781	    0.056073	   -0.024768	   -0.042935	   -0.067703	   -0.008708	   -0.033165	   -0.041872	    0.038986	    0.022381	    0.061367	    0.077395	    0.024702	    0.102097	    0.042785	    0.041436	    0.084221	    0.030462	    0.018806	    0.049268	    0.013923	   -0.010407	    0.003516	    0.021234	    0.057343	    0.078578	    0.011879	   -0.018513	   -0.006634	   -0.006703	   -0.020904	   -0.027607	    0.030972	    0.022974	    0.053946	    0.019565	   -0.007809	    0.011755	   -0.003984	   -0.010107	   -0.014091	    0.067706	    0.122066	    0.189773
     0.675	0	0	    0	    0.021048	   -0.002145	    0.018904	    0.016166	    0.006447	    0.022613	    0.050196	    0.044091	    0.094286	    0.117438	    0.081455	    0.198893	    0.120712	    0.087583	    0.208295	    0.089412	    0.090111	    0.179523	    0.045354	    0.063072	    0.108426	    0.016928	    0.034753	    0.051682	   -0.022561	   -0.045094	   -0.067655	   -0.007958	   -0.030391	   -0.038348	    0.038329	    0.021658	    0.059987	    0.081272	    0.023869	    0.105141	    0.044187	    0.047947	    0.092134	    0.026729	    0.019709	    0.046438	    0.013090	   -0.012682	    0.000408	    0.020036	    0.054935	    0.074970	    0.011029	   -0.018672	   -0.007644	   -0.008723	   -0.022264	   -0.030987	    0.027514	    0.022355	    0.049869	    0.019037	   -0.006531	    0.012506	   -0.005889	   -0.009558	   -0.015447	    0.068869	    0.117652	    0.186521
     0.750	0	0	    0	    0.013457	    0.001557	    0.015015	    0.015820	    0.008733	    0.024553	    0.046984	    0.041921	    0.088906	    0.113699	    0.079484	    0.193183	    0.117899	    0.086615	    0.204513	    0.090726	    0.089895	    0.180621	    0.039124	    0.062236	    0.101360	    0.013376	    0.035838	    0.049215	   -0.025147	   -0.040482	   -0.065629	   -0.009603	   -0.027890	   -0.037492	    0.036436	    0.022010	    0.058447	    0.079185	    0.024461	    0.103646	    0.043310	    0.048871	    0.092180	    0.022641	    0.026226	    0.048867	    0.012125	   -0.016115	   -0.003991	    0.015954	    0.056139	    0.072094	    0.008099	   -0.019098	   -0.010999	   -0.012793	   -0.021948	   -0.034741	    0.023578	    0.021042	    0.044620	    0.017018	   -0.006066	    0.010952	   -0.007887	   -0.009331	   -0.017218	    0.069630	    0.118313	    0.187943
     0.825	0	0	    0	    0.007225	    0.002316	    0.009541	    0.015986	    0.009318	    0.025303	    0.040307	    0.043601	    0.083908	    0.106910	    0.079215	    0.186125	    0.111341	    0.085618	    0.196959	    0.084422	    0.090316	    0.174738	    0.035947	    0.053283	    0.089230	    0.007484	    0.038349	    0.045833	   -0.021478	   -0.042946	   -0.064424	   -0.010904	   -0.026833	   -0.037737	    0.034476	    0.022024	    0.056500	    0.078193	    0.024598	    0.102791	    0.042118	    0.046471	    0.088589	    0.022182	    0.017936	    0.040118	    0.008008	   -0.018907	   -0.010899	    0.014958	    0.052026	    0.066984	    0.004462	   -0.018909	   -0.014447	   -0.017732	   -0.022802	   -0.040534	    0.017301	    0.019565	    0.036865	    0.014013	   -0.004961	    0.009052	   -0.006683	   -0.010798	   -0.017481	    0.062178	    0.115713	    0.177892
     0.900	0	0	    0	   -0.000049	    0.007693	    0.007644	    0.020520	    0.010971	    0.031491	    0.046987	    0.039396	    0.086383	    0.104374	    0.074958	    0.179331	    0.110204	    0.080955	    0.191159	    0.085260	    0.086389	    0.171649	    0.036023	    0.046936	    0.082960	    0.011336	    0.035034	    0.046370	   -0.018670	   -0.041259	   -0.059929	   -0.008279	   -0.026900	   -0.035179	    0.037815	    0.022092	    0.059907	    0.077462	    0.025037	    0.102499	    0.043972	    0.043389	    0.087362	    0.025025	    0.012409	    0.037434	    0.008726	   -0.013637	   -0.004911	    0.015542	    0.050937	    0.066479	    0.008262	   -0.019861	   -0.011599	   -0.012660	   -0.023012	   -0.035673	    0.019188	    0.018695	    0.037882	    0.018577	   -0.006127	    0.012450	   -0.003110	   -0.010058	   -0.013168	    0.060599	    0.123274	    0.183872
     0.975	0	0	    0	    0.014963	   -0.010042	    0.004921	    0.026019	    0.014979	    0.040998	    0.041074	    0.042944	    0.084018	    0.102806	    0.075520	    0.178326	    0.107956	    0.079755	    0.187711	    0.079106	    0.083323	    0.162429	    0.021094	    0.046015	    0.067109	    0.017215	    0.028904	    0.046119	   -0.011525	   -0.040803	   -0.052328	   -0.005993	   -0.023686	   -0.029679	    0.038746	    0.022956	    0.061702	    0.080077	    0.027269	    0.107346	    0.045916	    0.044719	    0.090636	    0.020615	    0.013088	    0.033703	    0.017080	   -0.023211	   -0.006131	    0.014606	    0.046824	    0.061430	    0.009492	   -0.018123	   -0.008632	   -0.008819	   -0.020924	   -0.029743	    0.015780	    0.018035	    0.033815	    0.020480	   -0.002108	    0.018372	    0.000023	   -0.008975	   -0.008952	    0.069995	    0.110369	    0.180364
     1.050	0	0	    0	    0.010760	   -0.011062	   -0.000301	    0.026211	    0.018531	    0.044742	    0.038187	    0.039219	    0.077407	    0.094219	    0.072967	    0.167186	    0.096131	    0.075508	    0.171639	    0.071856	    0.072406	    0.144263	    0.021882	    0.022387	    0.044270	    0.017870	    0.027288	    0.045159	   -0.007048	   -0.036202	   -0.043250	   -0.006814	   -0.021359	   -0.028172	    0.038723	    0.023199	    0.061921	    0.075149	    0.031934	    0.107083	    0.045526	    0.043716	    0.089242	    0.011672	    0.007097	    0.018769	    0.015582	   -0.026668	   -0.011087	    0.016697	    0.042584	    0.059281	    0.010565	   -0.019376	   -0.008811	   -0.006957	   -0.018418	   -0.025375	    0.015162	    0.015417	    0.030579	    0.021326	   -0.000868	    0.020458	   -0.000753	   -0.009180	   -0.009933	    0.070031	    0.108841	    0.178872
     1.125	0	0	    0	    0.013867	   -0.010572	    0.003295	    0.027251	    0.017618	    0.044869	    0.034550	    0.040434	    0.074984	    0.091788	    0.070826	    0.162614	    0.093139	    0.072024	    0.165163	    0.071866	    0.064787	    0.136652	    0.020935	    0.013218	    0.034153	    0.016675	    0.028556	    0.045231	   -0.003827	   -0.036130	   -0.039957	   -0.005956	   -0.021970	   -0.027926	    0.037412	    0.023971	    0.061383	    0.073653	    0.032121	    0.105774	    0.044329	    0.043344	    0.087673	    0.011836	    0.004435	    0.016271	    0.021748	   -0.032431	   -0.010683	    0.017454	    0.041318	    0.058772	    0.010364	   -0.019285	   -0.008921	   -0.006703	   -0.017818	   -0.024520	    0.013018	    0.015516	    0.028534	    0.020933	   -0.000006	    0.020927	    0.000278	   -0.008682	   -0.008404	    0.073885	    0.100229	    0.174114
     1.200	0	0	    0	   -0.000267	   -0.009012	   -0.009279	    0.023857	    0.018626	    0.042482	    0.029736	    0.038789	    0.068524	    0.084640	    0.070547	    0.155187	    0.086033	    0.073282	    0.159315	    0.062199	    0.063997	    0.126196	    0.002647	    0.014764	    0.017411	    0.011302	    0.030421	    0.041723	   -0.002680	   -0.034901	   -0.037580	   -0.008862	   -0.021248	   -0.030110	    0.035087	    0.023734	    0.058820	    0.070221	    0.032970	    0.103191	    0.041044	    0.042443	    0.083487	    0.011677	    0.001984	    0.013661	    0.016663	   -0.029926	   -0.013263	    0.017761	    0.039719	    0.057481	    0.010005	   -0.020179	   -0.010175	   -0.008311	   -0.017546	   -0.025857	    0.010839	    0.014826	    0.025665	    0.018074	   -0.000149	    0.017925	    0.002871	   -0.010255	   -0.007384	    0.060887	    0.095328	    0.156214
     1.275	0	0	    0	   -0.002706	   -0.010873	   -0.013579	    0.022094	    0.019429	    0.041523	    0.025491	    0.037637	    0.063129	    0.079614	    0.069851	    0.149464	    0.080409	    0.068675	    0.149083	    0.057980	    0.055283	    0.113263	    0.002234	   -0.003641	   -0.001407	    0.009548	    0.031103	    0.040651	    0.001974	   -0.029570	   -0.027596	   -0.011594	   -0.019755	   -0.031350	    0.033077	    0.023680	    0.056757	    0.068678	    0.033199	    0.101877	    0.037890	    0.040813	    0.078702	    0.011110	    0.006454	    0.017565	    0.014848	   -0.035205	   -0.020356	    0.021299	    0.039063	    0.060363	    0.009154	   -0.019205	   -0.010051	   -0.008553	   -0.017362	   -0.025914	    0.009682	    0.012825	    0.022507	    0.015483	    0.000780	    0.016264	    0.002963	   -0.006806	   -0.003843	    0.061981	    0.089417	    0.151398
     1.350	0	0	    0	    0.003841	   -0.015465	   -0.011625	    0.019703	    0.020842	    0.040545	    0.022265	    0.037155	    0.059420	    0.079509	    0.066768	    0.146276	    0.079482	    0.064651	    0.144133	    0.052569	    0.054948	    0.107517	   -0.004719	    0.002044	   -0.002675	    0.017610	    0.022719	    0.040330	    0.003205	   -0.025491	   -0.022287	   -0.014084	   -0.020592	   -0.034676	    0.032047	    0.023204	    0.055250	    0.066325	    0.032758	    0.099083	    0.034907	    0.039454	    0.074360	    0.009831	    0.006655	    0.016486	    0.015168	   -0.030417	   -0.015249	    0.020886	    0.041656	    0.062543	    0.008339	   -0.018513	   -0.010174	   -0.009335	   -0.016895	   -0.026230	    0.008401	    0.012823	    0.021224	    0.013664	    0.000477	    0.014141	    0.001505	   -0.005720	   -0.004215	    0.063024	    0.094096	    0.157120
     1.425	0	0	    0	   -0.007288	   -0.012398	   -0.019686	    0.018778	    0.020535	    0.039313	    0.018091	    0.037142	    0.055233	    0.074874	    0.068130	    0.143004	    0.077997	    0.065492	    0.143489	    0.049805	    0.054989	    0.104794	   -0.009023	    0.001039	   -0.007983	    0.012767	    0.027293	    0.040060	    0.002364	   -0.023615	   -0.021251	   -0.015172	   -0.021298	   -0.036470	    0.029649	    0.023720	    0.053370	    0.063983	    0.032920	    0.096903	    0.034261	    0.039439	    0.073699	    0.012060	    0.003117	    0.015177	    0.019409	   -0.038950	   -0.019541	    0.022341	    0.041589	    0.063930	    0.006687	   -0.017838	   -0.011150	   -0.009870	   -0.017098	   -0.026968	    0.005841	    0.012461	    0.018302	    0.011540	    0.000215	    0.011754	    0.001024	   -0.005378	   -0.004354	    0.063356	    0.089334	    0.152691
     1.500	0	0	    0	    0.004236	   -0.028785	   -0.024549	    0.015809	    0.022668	    0.038477	    0.013498	    0.036865	    0.050364	    0.075752	    0.065271	    0.141023	    0.077050	    0.064876	    0.141926	    0.045545	    0.052137	    0.097682	   -0.012388	    0.001389	   -0.010999	    0.014978	    0.026296	    0.041274	    0.005898	   -0.020794	   -0.014896	   -0.018171	   -0.019647	   -0.037818	    0.027841	    0.023548	    0.051389	    0.062168	    0.031717	    0.093885	    0.032016	    0.038791	    0.070807	    0.005440	    0.005702	    0.011142	    0.014764	   -0.038763	   -0.024000	    0.022553	    0.044774	    0.067328	    0.006590	   -0.015746	   -0.009157	   -0.011306	   -0.016370	   -0.027676	    0.004467	    0.012090	    0.016556	    0.010527	   -0.000809	    0.009718	    0.000111	   -0.005884	   -0.005773	    0.067097	    0.082054	    0.149151
     1.575	0	0	    0	   -0.012337	   -0.009629	   -0.021966	    0.015410	    0.021446	    0.036856	    0.010400	    0.036551	    0.046951	    0.072996	    0.066415	    0.139410	    0.073960	    0.066968	    0.140928	    0.046975	    0.049756	    0.096732	   -0.009245	   -0.002012	   -0.011257	    0.010932	    0.025525	    0.036457	    0.005493	   -0.018260	   -0.012766	   -0.019693	   -0.019354	   -0.039047	    0.026723	    0.024132	    0.050855	    0.060411	    0.031209	    0.091620	    0.030984	    0.038609	    0.069593	    0.010656	   -0.001014	    0.009642	    0.011423	   -0.033928	   -0.022505	    0.022722	    0.045308	    0.068029	    0.005185	   -0.015844	   -0.010659	   -0.011601	   -0.016011	   -0.027611	    0.002193	    0.012059	    0.014252	    0.009070	   -0.000756	    0.008314	   -0.001757	   -0.005967	   -0.007724	    0.059752	    0.089794	    0.149546
     1.650	0	0	    0	   -0.015423	   -0.010518	   -0.025940	    0.013637	    0.021861	    0.035498	    0.006592	    0.035838	    0.042429	    0.069278	    0.067360	    0.136638	    0.070881	    0.066038	    0.136919	    0.046134	    0.049572	    0.095706	   -0.014352	   -0.001232	   -0.015584	    0.008378	    0.024939	    0.033318	    0.003889	   -0.016294	   -0.012406	   -0.021461	   -0.019412	   -0.040873	    0.025453	    0.025052	    0.050505	    0.058448	    0.031201	    0.089650	    0.029341	    0.038484	    0.067825	    0.008756	    0.002361	    0.011116	    0.007149	   -0.030167	   -0.023018	    0.022174	    0.045117	    0.067292	    0.002635	   -0.014750	   -0.012114	   -0.013616	   -0.014152	   -0.027768	   -0.000658	    0.011372	    0.010714	    0.006831	   -0.000219	    0.006612	   -0.002755	   -0.005676	   -0.008431	    0.050456	    0.092429	    0.142886
     1.725	0	0	    0	   -0.011296	   -0.015142	   -0.026438	    0.010446	    0.023068	    0.033514	    0.002185	    0.034510	    0.036695	    0.063865	    0.066653	    0.130518	    0.068320	    0.064997	    0.133317	    0.042692	    0.051764	    0.094456	   -0.019320	   -0.001214	   -0.020534	    0.009718	    0.025790	    0.035509	    0.006102	   -0.015953	   -0.009850	   -0.023141	   -0.018913	   -0.042054	    0.022526	    0.025689	    0.048215	    0.056043	    0.031134	    0.087177	    0.028462	    0.038473	    0.066935	    0.007380	    0.005418	    0.012797	    0.020442	   -0.042756	   -0.022314	    0.020955	    0.046343	    0.067299	    0.000994	   -0.015170	   -0.014176	   -0.015085	   -0.014490	   -0.029575	   -0.002739	    0.010067	    0.007328	    0.005009	   -0.000258	    0.004751	   -0.003570	   -0.004493	   -0.008063	    0.059373	    0.084521	    0.143895
     1.800	0	0	    0	   -0.015468	   -0.018159	   -0.033627	    0.007279	    0.021286	    0.028565	    0.000482	    0.033173	    0.033655	    0.062536	    0.065170	    0.127706	    0.066204	    0.064210	    0.130414	    0.041443	    0.051539	    0.092981	   -0.010577	   -0.010440	   -0.021017	    0.006354	    0.026235	    0.032589	    0.005645	   -0.017592	   -0.011947	   -0.024714	   -0.018388	   -0.043102	    0.021735	    0.024560	    0.046295	    0.053794	    0.031530	    0.085324	    0.027325	    0.038583	    0.065907	    0.007074	    0.005540	    0.012615	    0.014820	   -0.037073	   -0.022253	    0.019581	    0.046556	    0.066137	   -0.000053	   -0.015332	   -0.015385	   -0.016653	   -0.014261	   -0.030915	   -0.005206	    0.009855	    0.004649	    0.002427	    0.000153	    0.002580	   -0.003108	   -0.004774	   -0.007882	    0.057244	    0.083082	    0.140326
     1.875	0	0	    0	   -0.013749	   -0.015610	   -0.029359	    0.006419	    0.021328	    0.027746	   -0.001424	    0.031930	    0.030506	    0.061198	    0.063074	    0.124272	    0.064671	    0.063692	    0.128363	    0.039562	    0.052696	    0.092259	   -0.019195	   -0.005032	   -0.024227	    0.005154	    0.026495	    0.031649	    0.003903	   -0.016310	   -0.012406	   -0.025178	   -0.019130	   -0.044308	    0.021523	    0.024293	    0.045816	    0.052250	    0.030971	    0.083220	    0.025265	    0.039295	    0.064560	    0.005202	    0.008131	    0.013333	    0.017575	   -0.037794	   -0.020220	    0.020755	    0.043551	    0.064306	   -0.000783	   -0.016344	   -0.017127	   -0.016004	   -0.015131	   -0.031135	   -0.005865	    0.008673	    0.002807	    0.000613	   -0.000305	    0.000309	   -0.003967	   -0.005152	   -0.009119	    0.062040	    0.083081	    0.145122
     1.950	0	0	    0	   -0.005941	   -0.017109	   -0.023050	    0.011068	    0.023336	    0.034404	    0.006506	    0.034007	    0.040512	    0.063135	    0.062314	    0.125449	    0.065369	    0.062810	    0.128179	    0.040468	    0.055131	    0.095598	   -0.017689	   -0.002848	   -0.020537	    0.013802	    0.023175	    0.036977	    0.008756	   -0.016431	   -0.007675	   -0.020311	   -0.018748	   -0.039060	    0.027727	    0.024412	    0.052139	    0.052782	    0.030165	    0.082947	    0.028454	    0.037851	    0.066305	    0.011983	    0.008091	    0.020075	    0.020020	   -0.036241	   -0.016222	    0.024192	    0.045356	    0.069548	    0.005289	   -0.015423	   -0.010134	   -0.009641	   -0.014149	   -0.023790	   -0.000583	    0.008681	    0.008099	    0.005552	   -0.000246	    0.005307	    0.000975	   -0.003830	   -0.002855	    0.067345	    0.091508	    0.158853
     2.025	0	0	    0	   -0.008805	   -0.010479	   -0.019284	    0.014388	    0.023862	    0.038250	    0.010461	    0.035182	    0.045643	    0.063480	    0.066287	    0.129767	    0.066116	    0.064520	    0.130636	    0.045281	    0.052448	    0.097728	   -0.011537	   -0.003353	   -0.014890	    0.013899	    0.030505	    0.044404	    0.012062	   -0.014967	   -0.002905	   -0.017813	   -0.016932	   -0.034745	    0.029940	    0.025758	    0.055698	    0.056156	    0.031136	    0.087293	    0.030467	    0.039286	    0.069753	    0.015714	    0.003744	    0.019458	    0.024284	   -0.033018	   -0.008734	    0.029880	    0.045139	    0.075019	    0.009240	   -0.013929	   -0.004689	   -0.007069	   -0.013157	   -0.020227	    0.001551	    0.009500	    0.011050	    0.010222	    0.000865	    0.011087	    0.004557	   -0.003846	    0.000711	    0.067200	    0.089249	    0.156449
     2.100	0	0	    0	   -0.004030	   -0.015910	   -0.019940	    0.017286	    0.021891	    0.039177	    0.011712	    0.035365	    0.047076	    0.066012	    0.065122	    0.131135	    0.066873	    0.063270	    0.130143	    0.051105	    0.044303	    0.095408	   -0.005173	   -0.008865	   -0.014038	    0.018866	    0.028123	    0.046988	    0.013111	   -0.014944	   -0.001833	   -0.015628	   -0.016961	   -0.032589	    0.031414	    0.025274	    0.056688	    0.057101	    0.032480	    0.089581	    0.031191	    0.039729	    0.070920	    0.017132	    0.006903	    0.024035	    0.031111	   -0.039629	   -0.008518	    0.029639	    0.047921	    0.077561	    0.012219	   -0.013364	   -0.001145	   -0.003606	   -0.012712	   -0.016318	    0.003070	    0.009500	    0.012570	    0.013191	    0.001866	    0.015057	    0.006859	   -0.003567	    0.003291	    0.072315	    0.093285	    0.165599
     2.175	0	0	    0	   -0.014289	    0.001324	   -0.012965	    0.016209	    0.023895	    0.040104	    0.007624	    0.036113	    0.043737	    0.065247	    0.064905	    0.130152	    0.067367	    0.063635	    0.131001	    0.043841	    0.052702	    0.096542	   -0.013299	   -0.002923	   -0.016222	    0.019798	    0.032477	    0.052275	    0.012102	   -0.012094	    0.000008	   -0.016812	   -0.015775	   -0.032587	    0.028817	    0.026357	    0.055174	    0.057285	    0.033364	    0.090650	    0.031992	    0.040803	    0.072795	    0.015843	    0.008169	    0.024012	    0.033342	   -0.036429	   -0.003086	    0.031908	    0.048003	    0.079912	    0.013173	   -0.012316	    0.000856	   -0.004429	   -0.011441	   -0.015869	    0.001418	    0.009519	    0.010937	    0.013848	    0.002548	    0.016395	    0.007086	   -0.002518	    0.004568	    0.078100	    0.089223	    0.167323
     2.250	0	0	    0	   -0.001947	   -0.019758	   -0.021705	    0.014795	    0.022739	    0.037534	    0.004586	    0.034877	    0.039463	    0.063863	    0.064593	    0.128456	    0.066328	    0.063272	    0.129601	    0.044191	    0.049626	    0.093818	   -0.017323	   -0.005782	   -0.023106	    0.023101	    0.025664	    0.048765	    0.012228	   -0.013921	   -0.001693	   -0.017788	   -0.015981	   -0.033769	    0.027857	    0.026150	    0.054008	    0.056714	    0.033629	    0.090343	    0.031270	    0.040613	    0.071883	    0.018770	    0.000480	    0.019250	    0.025508	   -0.030387	   -0.004879	    0.032786	    0.046233	    0.079018	    0.013446	   -0.012990	    0.000456	   -0.005129	   -0.010644	   -0.015773	   -0.000129	    0.009320	    0.009192	    0.012320	    0.002890	    0.015210	    0.007905	   -0.003310	    0.004596	    0.066599	    0.094093	    0.160692
     2.325	0	0	    0	   -0.002058	   -0.020222	   -0.022280	    0.013035	    0.023124	    0.036159	    0.003932	    0.033138	    0.037070	    0.063164	    0.061849	    0.125013	    0.065766	    0.062793	    0.128559	    0.043589	    0.050071	    0.093660	   -0.015711	   -0.008925	   -0.024636	    0.025752	    0.024664	    0.050416	    0.011484	   -0.012950	   -0.001466	   -0.018502	   -0.015878	   -0.034380	    0.026389	    0.024709	    0.051098	    0.055553	    0.034041	    0.089593	    0.030707	    0.040913	    0.071620	    0.015073	    0.006980	    0.022053	    0.023383	   -0.028622	   -0.005239	    0.033051	    0.047469	    0.080520	    0.012557	   -0.012089	    0.000468	   -0.005318	   -0.010501	   -0.015819	   -0.000438	    0.009009	    0.008571	    0.011655	    0.002483	    0.014139	    0.008801	   -0.001853	    0.006948	    0.065397	    0.093144	    0.158542
     2.400	0	0	    0	   -0.006871	   -0.017147	   -0.024018	    0.011842	    0.023639	    0.035481	    0.001976	    0.033882	    0.035858	    0.061419	    0.064296	    0.125715	    0.065269	    0.063327	    0.128597	    0.042425	    0.052134	    0.094559	   -0.018835	   -0.005454	   -0.024289	    0.023097	    0.024867	    0.047964	    0.011349	   -0.012149	   -0.000800	   -0.018908	   -0.016342	   -0.035251	    0.025125	    0.024563	    0.049688	    0.055462	    0.033942	    0.089404	    0.029818	    0.041240	    0.071058	    0.016819	    0.007028	    0.023848	    0.030889	   -0.033655	   -0.002766	    0.032180	    0.048388	    0.080568	    0.011976	   -0.011975	    0.000002	   -0.005660	   -0.010567	   -0.016227	   -0.001276	    0.009010	    0.007734	    0.009904	    0.003194	    0.013097	    0.007373	   -0.001079	    0.006294	    0.072061	    0.091563	    0.163624
     2.475	0	0	    0	    0.001278	   -0.023232	   -0.021953	    0.011007	    0.021405	    0.032411	    0.001037	    0.032155	    0.033192	    0.059931	    0.063801	    0.123732	    0.065908	    0.062122	    0.128030	    0.041641	    0.053056	    0.094697	   -0.017389	   -0.004087	   -0.021476	    0.026321	    0.022380	    0.048701	    0.010445	   -0.012420	   -0.001975	   -0.019606	   -0.016258	   -0.035865	    0.023196	    0.024296	    0.047492	    0.054163	    0.034274	    0.088436	    0.029344	    0.041420	    0.070765	    0.016796	    0.004797	    0.021592	    0.030789	   -0.030043	    0.000746	    0.032828	    0.049467	    0.082295	    0.011841	   -0.012804	   -0.000962	   -0.006431	   -0.010326	   -0.016757	   -0.002170	    0.008871	    0.006701	    0.008752	    0.003150	    0.011902	    0.006184	   -0.001233	    0.004951	    0.081441	    0.082868	    0.164308
     2.550	0	0	    0	   -0.000104	   -0.022694	   -0.022798	    0.009240	    0.019643	    0.028882	   -0.001500	    0.032331	    0.030831	    0.059702	    0.063097	    0.122799	    0.064195	    0.063119	    0.127314	    0.043851	    0.049763	    0.093614	   -0.014188	   -0.012840	   -0.027028	    0.021417	    0.023610	    0.045028	    0.011891	   -0.016097	   -0.004206	   -0.020362	   -0.016566	   -0.036928	    0.021359	    0.023305	    0.044664	    0.053664	    0.033816	    0.087480	    0.027983	    0.042069	    0.070052	    0.017525	    0.003945	    0.021470	    0.026183	   -0.029788	   -0.003605	    0.031896	    0.048443	    0.080340	    0.010339	   -0.012422	   -0.002083	   -0.007517	   -0.010140	   -0.017657	   -0.004136	    0.008893	    0.004757	    0.007259	    0.003492	    0.010751	    0.004728	   -0.001183	    0.003546	    0.071639	    0.090780	    0.162419
     2.625	0	0	    0	   -0.007533	   -0.018707	   -0.026241	    0.007857	    0.019371	    0.027228	   -0.004612	    0.032016	    0.027404	    0.056949	    0.063384	    0.120334	    0.062999	    0.063842	    0.126841	    0.041255	    0.052078	    0.093333	   -0.017102	   -0.012889	   -0.029991	    0.019442	    0.025841	    0.045283	    0.007892	   -0.012915	   -0.005023	   -0.021030	   -0.015767	   -0.036798	    0.020523	    0.023857	    0.044381	    0.052448	    0.034045	    0.086493	    0.027704	    0.042347	    0.070051	    0.014558	    0.005446	    0.020004	    0.028982	   -0.032118	   -0.003137	    0.030353	    0.049652	    0.080005	    0.008646	   -0.012181	   -0.003535	   -0.007466	   -0.010228	   -0.017694	   -0.006261	    0.007877	    0.001616	    0.006203	    0.003593	    0.009796	    0.002306	   -0.000753	    0.001553	    0.072289	    0.088667	    0.160956
     2.700	0	0	    0	   -0.014322	   -0.020175	   -0.034497	    0.004827	    0.019925	    0.024752	   -0.008700	    0.030455	    0.021755	    0.053700	    0.061846	    0.115546	    0.061005	    0.064803	    0.125809	    0.040985	    0.050333	    0.091318	   -0.015958	   -0.018356	   -0.034313	    0.015666	    0.023648	    0.039314	    0.010967	   -0.017267	   -0.006300	   -0.022397	   -0.014698	   -0.037094	    0.017471	    0.023643	    0.041113	    0.050318	    0.033955	    0.084273	    0.025707	    0.041174	    0.066882	    0.015225	    0.004373	    0.019598	    0.035844	   -0.037772	   -0.001928	    0.030441	    0.049866	    0.080307	    0.007732	   -0.012539	   -0.004807	   -0.009939	   -0.009085	   -0.019024	   -0.008917	    0.007478	   -0.001439	    0.005133	    0.004302	    0.009435	    0.002218	   -0.003757	   -0.001539	    0.071088	    0.092341	    0.163429
     2.775	0	0	    0	   -0.001720	   -0.029629	   -0.031350	    0.005677	    0.019263	    0.024940	   -0.012766	    0.030470	    0.017704	    0.051957	    0.061745	    0.113701	    0.060357	    0.064840	    0.125197	    0.039143	    0.048452	    0.087595	   -0.017777	   -0.018150	   -0.035927	    0.017495	    0.024692	    0.042187	    0.007301	   -0.012759	   -0.005458	   -0.024349	   -0.014065	   -0.038414	    0.014893	    0.023028	    0.037921	    0.048885	    0.034142	    0.083026	    0.023764	    0.042950	    0.066715	    0.012256	    0.003652	    0.015908	    0.030486	   -0.033061	   -0.002575	    0.030660	    0.048600	    0.079260	    0.006812	   -0.012495	   -0.005683	   -0.011457	   -0.009266	   -0.020723	   -0.010923	    0.006948	   -0.003976	    0.003577	    0.005639	    0.009216	    0.000367	   -0.002823	   -0.002456	    0.066192	    0.091875	    0.158068
     2.850	0	0	    0	   -0.010878	   -0.019830	   -0.030708	    0.002818	    0.021086	    0.023904	   -0.015540	    0.029726	    0.014186	    0.050025	    0.061718	    0.111744	    0.059690	    0.064610	    0.124300	    0.036798	    0.049333	    0.086131	   -0.025231	   -0.013267	   -0.038498	    0.014617	    0.029074	    0.043691	    0.007595	   -0.012976	   -0.005381	   -0.026035	   -0.014068	   -0.040103	    0.012683	    0.022196	    0.034879	    0.046724	    0.034386	    0.081110	    0.022904	    0.042668	    0.065572	    0.011401	    0.004179	    0.015580	    0.027423	   -0.028636	   -0.001213	    0.028561	    0.049787	    0.078348	    0.005253	   -0.012718	   -0.007466	   -0.013302	   -0.009202	   -0.022505	   -0.012808	    0.006684	   -0.006123	    0.000943	    0.005889	    0.006831	   -0.001841	   -0.001500	   -0.003340	    0.064683	    0.092529	    0.157212
     2.925	0	0	    0	   -0.008958	   -0.022262	   -0.031219	    0.000915	    0.020960	    0.021875	   -0.016930	    0.028152	    0.011223	    0.048512	    0.062141	    0.110653	    0.058101	    0.064394	    0.122495	    0.034656	    0.047592	    0.082248	   -0.023119	   -0.020647	   -0.043766	    0.014117	    0.027393	    0.041510	    0.003764	   -0.010896	   -0.007131	   -0.027325	   -0.014188	   -0.041512	    0.010420	    0.020912	    0.031332	    0.045325	    0.033636	    0.078961	    0.020692	    0.042919	    0.063612	    0.006704	    0.004402	    0.011106	    0.026422	   -0.031525	   -0.005104	    0.026117	    0.050135	    0.076253	    0.003392	   -0.012108	   -0.008716	   -0.014906	   -0.009369	   -0.024275	   -0.014527	    0.006575	   -0.007952	   -0.001253	    0.005822	    0.004569	   -0.002525	   -0.002562	   -0.005087	    0.068061	    0.084399	    0.152460
     3.000	0	0	    0	   -0.001368	   -0.025902	   -0.027270	    0.004944	    0.020803	    0.025747	   -0.012290	    0.028081	    0.015791	    0.050497	    0.060369	    0.110866	    0.058961	    0.064268	    0.123229	    0.038294	    0.049191	    0.087485	   -0.025197	   -0.012878	   -0.038074	    0.023120	    0.019363	    0.042483	    0.008635	   -0.015002	   -0.006367	   -0.022909	   -0.014762	   -0.037671	    0.015323	    0.019605	    0.034928	    0.044368	    0.033155	    0.077523	    0.022444	    0.042467	    0.064911	    0.012203	    0.004535	    0.016738	    0.037707	   -0.031410	    0.006297	    0.031046	    0.048550	    0.079596	    0.007528	   -0.013051	   -0.005523	   -0.008601	   -0.009685	   -0.018285	   -0.010277	    0.005449	   -0.004827	    0.002041	    0.004187	    0.006229	    0.000911	   -0.002264	   -0.001352	    0.074081	    0.091230	    0.165311
     3.075	0	0	    0	   -0.007182	   -0.019749	   -0.026931	    0.008827	    0.020738	    0.029565	   -0.005530	    0.028318	    0.022789	    0.052878	    0.062055	    0.114933	    0.060581	    0.063383	    0.123964	    0.040284	    0.046480	    0.086764	   -0.015502	   -0.020547	   -0.036049	    0.020450	    0.027960	    0.048410	    0.009828	   -0.013552	   -0.003724	   -0.018643	   -0.012827	   -0.031470	    0.018320	    0.020725	    0.039045	    0.048002	    0.033271	    0.081273	    0.024814	    0.043360	    0.068174	    0.013136	    0.005272	    0.018409	    0.036372	   -0.029648	    0.006724	    0.034135	    0.050960	    0.085095	    0.012778	   -0.011692	    0.001086	   -0.004281	   -0.007956	   -0.012237	   -0.006357	    0.006346	   -0.000010	    0.006967	    0.005935	    0.012901	    0.004522	   -0.001673	    0.002849	    0.075760	    0.092951	    0.168711
     3.150	0	0	    0	    0.001931	   -0.028874	   -0.026943	    0.009691	    0.020984	    0.030675	   -0.004244	    0.028660	    0.024416	    0.055126	    0.061682	    0.116807	    0.061151	    0.063441	    0.124591	    0.040956	    0.046210	    0.087167	   -0.016718	   -0.021392	   -0.038110	    0.024105	    0.025418	    0.049523	    0.012225	   -0.013542	   -0.001317	   -0.016350	   -0.012120	   -0.028470	    0.020318	    0.020606	    0.040924	    0.050323	    0.033383	    0.083706	    0.027231	    0.042319	    0.069550	    0.015457	    0.002922	    0.018380	    0.040986	   -0.029990	    0.010997	    0.038010	    0.048781	    0.086791	    0.015107	   -0.011289	    0.003817	   -0.001189	   -0.007393	   -0.008583	   -0.004484	    0.006533	    0.002049	    0.010526	    0.006716	    0.017243	    0.007165	   -0.001931	    0.005234	    0.086194	    0.088917	    0.175111
     3.225	0	0	    0	   -0.001363	   -0.022306	   -0.023669	    0.009275	    0.022084	    0.031360	   -0.004810	    0.028700	    0.023890	    0.055870	    0.061334	    0.117203	    0.061357	    0.064254	    0.125612	    0.041342	    0.047284	    0.088626	   -0.018227	   -0.019455	   -0.037681	    0.024998	    0.025872	    0.050870	    0.011192	   -0.011702	   -0.000509	   -0.016568	   -0.010621	   -0.027189	    0.019370	    0.021368	    0.040738	    0.051149	    0.034622	    0.085771	    0.027855	    0.043954	    0.071809	    0.011891	    0.004722	    0.016613	    0.040422	   -0.030578	    0.009844	    0.038665	    0.050676	    0.089341	    0.016592	   -0.010703	    0.005889	   -0.001419	   -0.006045	   -0.007464	   -0.004572	    0.007204	    0.002632	    0.011468	    0.008191	    0.019660	    0.008130	   -0.002521	    0.005609	    0.083239	    0.090955	    0.174194
     3.300	0	0	    0	   -0.003873	   -0.024531	   -0.028403	    0.007932	    0.021920	    0.029852	   -0.007616	    0.028792	    0.021176	    0.053680	    0.062526	    0.116205	    0.060411	    0.065166	    0.125577	    0.036872	    0.051601	    0.088473	   -0.024846	   -0.013289	   -0.038135	    0.023280	    0.025947	    0.049227	    0.008659	   -0.009693	   -0.001034	   -0.016538	   -0.010865	   -0.027404	    0.018570	    0.020930	    0.039500	    0.050378	    0.034975	    0.085353	    0.026593	    0.044448	    0.071041	    0.011166	    0.005567	    0.016733	    0.034462	   -0.026609	    0.007852	    0.037584	    0.051815	    0.089399	    0.015678	   -0.010214	    0.005463	   -0.001640	   -0.005658	   -0.007299	   -0.004829	    0.007101	    0.002272	    0.010453	    0.008806	    0.019260	    0.006357	   -0.001509	    0.004848	    0.083858	    0.090706	    0.174565
     3.375	0	0	    0	   -0.005157	   -0.016901	   -0.022058	    0.010012	    0.020855	    0.030867	   -0.007873	    0.028247	    0.020374	    0.053078	    0.063434	    0.116512	    0.060608	    0.064808	    0.125416	    0.040075	    0.047878	    0.087953	   -0.017425	   -0.018563	   -0.035988	    0.024607	    0.025847	    0.050454	    0.013294	   -0.012971	    0.000323	   -0.016845	   -0.010523	   -0.027368	    0.017286	    0.020030	    0.037316	    0.050055	    0.034936	    0.084991	    0.027193	    0.043797	    0.070990	    0.008766	    0.004559	    0.013325	    0.046595	   -0.034089	    0.012506	    0.040128	    0.050308	    0.090436	    0.016302	   -0.010475	    0.005827	   -0.001325	   -0.005853	   -0.007178	   -0.004953	    0.007132	    0.002179	    0.010939	    0.008428	    0.019367	    0.006167	   -0.001124	    0.005043	    0.082189	    0.090488	    0.172678
     3.450	0	0	    0	   -0.011614	   -0.012916	   -0.024529	    0.008167	    0.021891	    0.030058	   -0.009308	    0.028467	    0.019159	    0.052854	    0.063802	    0.116656	    0.059493	    0.066120	    0.125613	    0.039064	    0.048284	    0.087348	   -0.021565	   -0.015818	   -0.037382	    0.022614	    0.028100	    0.050714	    0.012836	   -0.013055	   -0.000219	   -0.017535	   -0.010679	   -0.028215	    0.016694	    0.020313	    0.037007	    0.049656	    0.035110	    0.084765	    0.027207	    0.043617	    0.070824	    0.012854	    0.002369	    0.015223	    0.043479	   -0.032134	    0.011345	    0.038953	    0.050807	    0.089760	    0.015487	   -0.009472	    0.006016	   -0.002815	   -0.005556	   -0.008371	   -0.005956	    0.007382	    0.001426	    0.009546	    0.009212	    0.018758	    0.007258	   -0.002434	    0.004824	    0.087067	    0.085292	    0.172360
     3.525	0	0	    0	   -0.008530	   -0.012033	   -0.020563	    0.006300	    0.024044	    0.030344	   -0.012676	    0.029383	    0.016707	    0.051998	    0.063014	    0.115011	    0.059500	    0.066596	    0.126096	    0.032337	    0.055742	    0.088079	   -0.024846	   -0.013289	   -0.038135	    0.022363	    0.027635	    0.049998	    0.012705	   -0.011028	    0.001677	   -0.019649	   -0.010042	   -0.029691	    0.015375	    0.020393	    0.035768	    0.048751	    0.035354	    0.084105	    0.025735	    0.044739	    0.070474	    0.008147	    0.002605	    0.010752	    0.040580	   -0.025298	    0.015282	    0.037592	    0.051190	    0.088782	    0.014238	   -0.009735	    0.004503	   -0.004165	   -0.005772	   -0.009937	   -0.007655	    0.007432	   -0.000224	    0.008088	    0.009337	    0.017426	    0.005044	   -0.001255	    0.003789	    0.074794	    0.095181	    0.169974
     3.600	0	0	    0	   -0.003189	   -0.024797	   -0.027985	    0.007774	    0.020670	    0.028443	   -0.012296	    0.026990	    0.014693	    0.052349	    0.061815	    0.114164	    0.059763	    0.065196	    0.124959	    0.036542	    0.049634	    0.086176	   -0.017576	   -0.021171	   -0.038746	    0.022110	    0.028472	    0.050582	    0.010302	   -0.010010	    0.000292	   -0.020714	   -0.010773	   -0.031487	    0.013772	    0.020414	    0.034186	    0.048104	    0.034994	    0.083099	    0.025637	    0.044023	    0.069660	    0.009400	    0.000218	    0.009618	    0.039254	   -0.026110	    0.013144	    0.036524	    0.051515	    0.088039	    0.012526	   -0.009719	    0.002807	   -0.005891	   -0.005745	   -0.011636	   -0.009369	    0.007039	   -0.002330	    0.006421	    0.009188	    0.015609	    0.005061	   -0.002655	    0.002405	    0.076937	    0.091041	    0.167977
     3.675	0	0	    0	   -0.012428	   -0.014305	   -0.026733	    0.004675	    0.022847	    0.027522	   -0.014792	    0.027173	    0.012381	    0.050787	    0.062312	    0.113100	    0.059394	    0.064791	    0.124185	    0.033620	    0.048918	    0.082537	   -0.029455	   -0.015050	   -0.044505	    0.021003	    0.026208	    0.047210	    0.008811	   -0.009477	   -0.000666	   -0.022155	   -0.010914	   -0.033069	    0.012235	    0.020069	    0.032304	    0.046835	    0.035034	    0.081869	    0.024302	    0.044783	    0.069085	    0.006836	   -0.001351	    0.005485	    0.029837	   -0.021831	    0.008007	    0.036734	    0.050432	    0.087166	    0.011588	   -0.010087	    0.001500	   -0.007871	   -0.005255	   -0.013126	   -0.011173	    0.007187	   -0.003986	    0.004281	    0.009141	    0.013421	    0.003391	   -0.001745	    0.001646	    0.073664	    0.089178	    0.162842
     3.750	0	0	    0	   -0.014866	   -0.009418	   -0.024285	    0.001842	    0.024451	    0.026293	   -0.016764	    0.026726	    0.009962	    0.048544	    0.062518	    0.111062	    0.057458	    0.066747	    0.124205	    0.032858	    0.049816	    0.082673	   -0.030947	   -0.009771	   -0.040719	    0.019242	    0.028956	    0.048199	    0.006863	   -0.006953	   -0.000090	   -0.023898	   -0.011148	   -0.035046	    0.010538	    0.019993	    0.030531	    0.045559	    0.034988	    0.080547	    0.023462	    0.045435	    0.068898	    0.001255	    0.007116	    0.008371	    0.037584	   -0.023294	    0.014290	    0.034097	    0.052663	    0.086759	    0.009640	   -0.009768	   -0.000128	   -0.009635	   -0.005666	   -0.015300	   -0.013173	    0.007110	   -0.006063	    0.001815	    0.009226	    0.011041	    0.002319	    0.000122	    0.002441	    0.070045	    0.096555	    0.166600
     3.825	0	0	    0	   -0.016129	   -0.012593	   -0.028721	    0.001442	    0.023762	    0.025204	   -0.017954	    0.027180	    0.009227	    0.047635	    0.063818	    0.111453	    0.057067	    0.066754	    0.123821	    0.033884	    0.048554	    0.082438	   -0.025138	   -0.016918	   -0.042056	    0.020317	    0.027593	    0.047910	    0.005973	   -0.006863	   -0.000890	   -0.024826	   -0.011306	   -0.036132	    0.009366	    0.019282	    0.028648	    0.044033	    0.034812	    0.078845	    0.021716	    0.046082	    0.067798	    0.004505	   -0.000297	    0.004208	    0.038976	   -0.027687	    0.011289	    0.032826	    0.053940	    0.086766	    0.008413	   -0.010005	   -0.001592	   -0.010752	   -0.006218	   -0.016970	   -0.014318	    0.006762	   -0.007555	    0.000030	    0.008996	    0.009026	   -0.000174	    0.001563	    0.001389	    0.077145	    0.088219	    0.165364
     3.900	0	0	    0	   -0.011051	   -0.025505	   -0.036557	   -0.000311	    0.022183	    0.021872	   -0.019806	    0.027975	    0.008169	    0.047763	    0.063322	    0.111085	    0.056548	    0.066544	    0.123092	    0.029815	    0.050714	    0.080529	   -0.031250	   -0.012865	   -0.044114	    0.018308	    0.027014	    0.045322	    0.002876	   -0.008377	   -0.005501	   -0.026357	   -0.011306	   -0.037664	    0.008228	    0.018711	    0.026938	    0.042743	    0.034158	    0.076901	    0.020058	    0.046030	    0.066089	    0.001119	    0.003649	    0.004768	    0.030372	   -0.025760	    0.004612	    0.031988	    0.052984	    0.084972	    0.006864	   -0.009988	   -0.003124	   -0.012693	   -0.006125	   -0.018818	   -0.016189	    0.006790	   -0.009399	   -0.002051	    0.008773	    0.006722	   -0.001407	    0.000545	   -0.000862	    0.070898	    0.093374	    0.164271
     3.975	0	0	    0	   -0.007986	   -0.018133	   -0.026119	    0.003246	    0.020308	    0.023553	   -0.016835	    0.025672	    0.008837	    0.048281	    0.061454	    0.109735	    0.056543	    0.066062	    0.122605	    0.033626	    0.046841	    0.080467	   -0.023033	   -0.019894	   -0.042927	    0.018324	    0.027774	    0.046099	    0.004945	   -0.009157	   -0.004212	   -0.024693	   -0.012710	   -0.037403	    0.010151	    0.017739	    0.027890	    0.041458	    0.033881	    0.075339	    0.019835	    0.045712	    0.065547	    0.006175	   -0.001327	    0.004849	    0.047730	   -0.034104	    0.013626	    0.034414	    0.051220	    0.085634	    0.008036	   -0.011408	   -0.003371	   -0.009479	   -0.007468	   -0.016947	   -0.014165	    0.005563	   -0.008602	   -0.001833	    0.007677	    0.005845	   -0.000428	    0.000109	   -0.000319	    0.082089	    0.087731	    0.169821
     4.050	0	0	    0	   -0.001814	   -0.025331	   -0.027145	    0.007989	    0.021464	    0.029453	   -0.008913	    0.027131	    0.018218	    0.050807	    0.061859	    0.112666	    0.058012	    0.065858	    0.123869	    0.036223	    0.044814	    0.081038	   -0.016370	   -0.023793	   -0.040162	    0.024612	    0.027146	    0.051758	    0.011490	   -0.011921	   -0.000431	   -0.020575	   -0.010901	   -0.031476	    0.014525	    0.019149	    0.033674	    0.044181	    0.033318	    0.077500	    0.023260	    0.044505	    0.067765	    0.008098	   -0.001557	    0.006542	    0.030784	   -0.021168	    0.009615	    0.040720	    0.049379	    0.090099	    0.013712	   -0.009604	    0.004108	   -0.005718	   -0.005199	   -0.010917	   -0.010195	    0.006865	   -0.003330	    0.003505	    0.008716	    0.012221	    0.004946	   -0.000077	    0.004869	    0.076915	    0.102420	    0.179335
     4.125	0	0	    0	   -0.002282	   -0.022349	   -0.024631	    0.006383	    0.024833	    0.031216	   -0.008132	    0.030013	    0.021881	    0.054233	    0.062814	    0.117048	    0.058668	    0.066768	    0.125436	    0.031339	    0.050881	    0.082220	   -0.025788	   -0.010887	   -0.036674	    0.027005	    0.026521	    0.053526	    0.011211	   -0.009928	    0.001283	   -0.019439	   -0.009997	   -0.029436	    0.016502	    0.019589	    0.036091	    0.046478	    0.033787	    0.080265	    0.024361	    0.045190	    0.069551	    0.008750	   -0.002602	    0.006148	    0.043581	   -0.034283	    0.009298	    0.040502	    0.051467	    0.091969	    0.015585	   -0.008682	    0.006903	   -0.003763	   -0.005407	   -0.009170	   -0.008044	    0.007368	   -0.000676	    0.006159	    0.010175	    0.016334	    0.005756	   -0.000547	    0.005208	    0.081181	    0.094643	    0.175824
     4.200	0	0	    0	   -0.005274	   -0.009468	   -0.014741	    0.008665	    0.025181	    0.033846	   -0.005338	    0.030663	    0.025326	    0.054552	    0.063983	    0.118535	    0.060400	    0.066535	    0.126935	    0.034245	    0.047560	    0.081804	   -0.016431	   -0.014114	   -0.030545	    0.027286	    0.030695	    0.057981	    0.012270	   -0.008007	    0.004263	   -0.018522	   -0.010236	   -0.028758	    0.017424	    0.021484	    0.038909	    0.048014	    0.034363	    0.082377	    0.025284	    0.045510	    0.070794	    0.003346	   -0.002767	    0.000579	    0.032303	   -0.027322	    0.004980	    0.042543	    0.052745	    0.095288	    0.017436	   -0.008354	    0.009082	   -0.004407	   -0.003891	   -0.008298	   -0.008168	    0.008413	    0.000245	    0.008649	    0.010373	    0.019022	    0.004506	   -0.000631	    0.003875	    0.088058	    0.098677	    0.186736
     4.275	0	0	    0	   -0.005269	   -0.015542	   -0.020811	    0.009234	    0.023219	    0.032452	   -0.004189	    0.030030	    0.025840	    0.052939	    0.064443	    0.117382	    0.061140	    0.067353	    0.128493	    0.036795	    0.042333	    0.079128	   -0.009364	   -0.021305	   -0.030669	    0.026465	    0.032518	    0.058983	    0.014983	   -0.011054	    0.003929	   -0.020892	   -0.010570	   -0.031463	    0.016851	    0.022127	    0.038978	    0.048175	    0.035133	    0.083307	    0.026383	    0.046258	    0.072641	    0.003111	   -0.007470	   -0.004359	    0.026767	   -0.029587	   -0.002819	    0.043934	    0.051532	    0.095466	    0.016839	   -0.008993	    0.007846	   -0.005372	   -0.005451	   -0.010823	   -0.009248	    0.007802	   -0.001445	    0.008165	    0.010343	    0.018508	    0.004944	   -0.004261	    0.000683	    0.083793	    0.097917	    0.181709
     4.350	0	0	    0	   -0.005631	   -0.014483	   -0.020113	    0.007481	    0.024167	    0.031648	   -0.006566	    0.032806	    0.026240	    0.055114	    0.061126	    0.116240	    0.061148	    0.067838	    0.128986	    0.034245	    0.045492	    0.079737	   -0.019585	   -0.009016	   -0.028601	    0.026323	    0.032966	    0.059290	    0.012426	   -0.009027	    0.003399	   -0.020277	   -0.011543	   -0.031820	    0.016780	    0.021859	    0.038639	    0.048034	    0.034856	    0.082890	    0.025747	    0.046144	    0.071890	   -0.000159	   -0.004390	   -0.004550	    0.033424	   -0.033528	   -0.000105	    0.041757	    0.053008	    0.094764	    0.015942	   -0.008311	    0.007631	   -0.005025	   -0.005018	   -0.010043	   -0.008994	    0.007906	   -0.001088	    0.007006	    0.010629	    0.017635	    0.004258	   -0.004189	    0.000069	    0.084458	    0.095727	    0.180185
     4.425	0	0	    0	   -0.003098	   -0.018907	   -0.022005	    0.007888	    0.023017	    0.030905	   -0.005992	    0.031099	    0.025106	    0.053633	    0.063497	    0.117131	    0.061733	    0.067689	    0.129423	    0.035414	    0.044630	    0.080044	   -0.020016	   -0.010896	   -0.030911	    0.024761	    0.034148	    0.058909	    0.011817	   -0.009240	    0.002577	   -0.021127	   -0.010418	   -0.031545	    0.016514	    0.022910	    0.039425	    0.048220	    0.035322	    0.083542	    0.025635	    0.047115	    0.072750	    0.001934	   -0.006998	   -0.005064	    0.036821	   -0.033151	    0.003670	    0.042455	    0.051838	    0.094293	    0.015745	   -0.008667	    0.007078	   -0.004758	   -0.005376	   -0.010134	   -0.009949	    0.008166	   -0.001783	    0.006895	    0.010410	    0.017305	    0.003158	   -0.003712	   -0.000553	    0.092629	    0.087386	    0.180015
     4.500	0	0	    0	   -0.015682	   -0.007782	   -0.023464	    0.005717	    0.024166	    0.029883	   -0.008387	    0.030974	    0.022587	    0.051446	    0.064182	    0.115628	    0.060712	    0.068483	    0.129195	    0.030522	    0.049521	    0.080043	   -0.022634	   -0.010115	   -0.032748	    0.023038	    0.033387	    0.056425	    0.013157	   -0.011314	    0.001843	   -0.021646	   -0.010989	   -0.032635	    0.015040	    0.022530	    0.037569	    0.047541	    0.035462	    0.083003	    0.025126	    0.047242	    0.072367	    0.002242	   -0.006120	   -0.003878	    0.039141	   -0.032770	    0.006371	    0.041162	    0.053264	    0.094426	    0.014662	   -0.008865	    0.005798	   -0.006119	   -0.004674	   -0.010793	   -0.010550	    0.008038	   -0.002512	    0.005514	    0.010780	    0.016294	    0.001598	   -0.002738	   -0.001140	    0.086081	    0.091300	    0.177381
     4.575	0	0	    0	   -0.011830	   -0.010871	   -0.022701	    0.003687	    0.024708	    0.028395	   -0.011377	    0.032020	    0.020643	    0.051596	    0.063003	    0.114599	    0.060329	    0.068281	    0.128611	    0.033114	    0.045436	    0.078550	   -0.023834	   -0.007039	   -0.030873	    0.025687	    0.029510	    0.055197	    0.011948	   -0.011365	    0.000583	   -0.023010	   -0.010756	   -0.033766	    0.013972	    0.022979	    0.036951	    0.047043	    0.035252	    0.082295	    0.024009	    0.047599	    0.071608	    0.000518	   -0.001399	   -0.000881	    0.036977	   -0.029449	    0.007527	    0.041871	    0.051457	    0.093328	    0.013588	   -0.009161	    0.004427	   -0.007416	   -0.004570	   -0.011986	   -0.011961	    0.008333	   -0.003628	    0.003992	    0.010823	    0.014815	    0.001486	   -0.003058	   -0.001572	    0.083741	    0.093170	    0.176911
     4.650	0	0	    0	   -0.011541	   -0.012424	   -0.023965	    0.006184	    0.021680	    0.027864	   -0.011733	    0.029651	    0.017918	    0.050139	    0.062956	    0.113095	    0.060038	    0.067775	    0.127813	    0.034942	    0.044311	    0.079253	   -0.019921	   -0.013106	   -0.033026	    0.025526	    0.029183	    0.054709	    0.009399	   -0.009530	   -0.000131	   -0.023885	   -0.011614	   -0.035498	    0.013449	    0.023164	    0.036613	    0.046453	    0.035489	    0.081942	    0.023287	    0.047603	    0.070890	    0.003818	   -0.004504	   -0.000686	    0.035669	   -0.030246	    0.005423	    0.040390	    0.052336	    0.092726	    0.011920	   -0.009040	    0.002881	   -0.008688	   -0.004724	   -0.013412	   -0.013283	    0.007915	   -0.005368	    0.002546	    0.010436	    0.012982	   -0.000093	   -0.001621	   -0.001714	    0.084984	    0.087523	    0.172507
     4.725	0	0	    0	   -0.016277	   -0.012412	   -0.028689	    0.003018	    0.023674	    0.026692	   -0.014109	    0.030288	    0.016180	    0.048910	    0.063267	    0.112177	    0.058622	    0.068101	    0.126722	    0.032116	    0.043843	    0.075959	   -0.018940	   -0.018625	   -0.037564	    0.022471	    0.029350	    0.051821	    0.008219	   -0.008476	   -0.000257	   -0.025561	   -0.011183	   -0.036743	    0.012600	    0.023777	    0.036378	    0.045142	    0.035785	    0.080927	    0.022684	    0.047336	    0.070020	    0.003526	   -0.003317	    0.000209	    0.035569	   -0.030645	    0.004924	    0.039521	    0.051882	    0.091403	    0.010709	   -0.009528	    0.001181	   -0.010689	   -0.004181	   -0.014871	   -0.014836	    0.008082	   -0.006754	    0.000692	    0.010862	    0.011555	   -0.000010	   -0.002679	   -0.002689	    0.074734	    0.097099	    0.171834
     4.800	0	0	    0	   -0.005710	   -0.019815	   -0.025525	    0.001685	    0.024370	    0.026055	   -0.016838	    0.030533	    0.013695	    0.048232	    0.061196	    0.109428	    0.058507	    0.067665	    0.126172	    0.032090	    0.044692	    0.076782	   -0.020467	   -0.015185	   -0.035652	    0.025391	    0.025396	    0.050788	    0.008212	   -0.009128	   -0.000916	   -0.026884	   -0.011366	   -0.038250	    0.011775	    0.024149	    0.035923	    0.044605	    0.035932	    0.080537	    0.021922	    0.047903	    0.069825	    0.000960	   -0.005076	   -0.004115	    0.029176	   -0.029490	   -0.000313	    0.039247	    0.050560	    0.089807	    0.009590	   -0.009804	   -0.000214	   -0.011794	   -0.004718	   -0.016512	   -0.016958	    0.007761	   -0.009197	   -0.000909	    0.010275	    0.009365	   -0.001631	   -0.002604	   -0.004236	    0.074310	    0.096298	    0.170608
     4.875	0	0	    0	   -0.014330	   -0.014872	   -0.029202	   -0.000655	    0.024075	    0.023420	   -0.019009	    0.031063	    0.012054	    0.046493	    0.062260	    0.108754	    0.057766	    0.067526	    0.125291	    0.026979	    0.046692	    0.073671	   -0.023352	   -0.015632	   -0.038983	    0.022323	    0.026912	    0.049235	    0.004800	   -0.008443	   -0.003643	   -0.028201	   -0.011037	   -0.039237	    0.009990	    0.024529	    0.034518	    0.043072	    0.036325	    0.079398	    0.020092	    0.048780	    0.068872	   -0.000978	   -0.006067	   -0.007045	    0.032430	   -0.035292	   -0.002862	    0.036207	    0.052962	    0.089169	    0.008550	   -0.010179	   -0.001629	   -0.013433	   -0.004772	   -0.018205	   -0.018645	    0.007694	   -0.010951	   -0.002459	    0.010291	    0.007832	   -0.002114	   -0.005016	   -0.007129	    0.079590	    0.090536	    0.170126
     4.950	0	0	    0	   -0.008545	   -0.019219	   -0.027764	    0.002763	    0.021251	    0.024014	   -0.016938	    0.028480	    0.011541	    0.045570	    0.060905	    0.106475	    0.058057	    0.066875	    0.124932	    0.025048	    0.048557	    0.073605	   -0.024147	   -0.012625	   -0.036772	    0.027672	    0.020943	    0.048615	    0.003902	   -0.009178	   -0.005276	   -0.027150	   -0.011861	   -0.039011	    0.012039	    0.023063	    0.035101	    0.042120	    0.036257	    0.078377	    0.020417	    0.048312	    0.068729	   -0.000384	   -0.004184	   -0.004568	    0.037835	   -0.031370	    0.006465	    0.038850	    0.051226	    0.090075	    0.008815	   -0.010780	   -0.001965	   -0.010468	   -0.005787	   -0.016255	   -0.016829	    0.006695	   -0.010134	   -0.002593	    0.009633	    0.007040	   -0.002258	   -0.003943	   -0.006201	    0.079552	    0.098990	    0.178542
     5.025	0	0	    0	   -0.014833	   -0.012457	   -0.027290	    0.007184	    0.024060	    0.031244	   -0.008468	    0.030999	    0.022531	    0.048300	    0.061114	    0.109414	    0.058485	    0.068562	    0.127047	    0.028332	    0.046467	    0.074799	   -0.016061	   -0.015069	   -0.031130	    0.025808	    0.029106	    0.054913	    0.008655	   -0.009500	   -0.000845	   -0.022717	   -0.010803	   -0.033520	    0.018420	    0.024304	    0.042724	    0.045149	    0.035436	    0.080585	    0.023414	    0.048716	    0.072130	    0.003998	   -0.003923	    0.000076	    0.035879	   -0.025746	    0.010133	    0.041162	    0.053143	    0.094305	    0.015375	   -0.009837	    0.005538	   -0.006240	   -0.004558	   -0.010798	   -0.012808	    0.007645	   -0.005163	    0.002781	    0.011222	    0.014003	    0.002219	   -0.002212	    0.000006	    0.086381	    0.093118	    0.179499
     5.100	0	0	    0	    0.000367	   -0.018427	   -0.018060	    0.008436	    0.026150	    0.034587	   -0.004508	    0.031880	    0.027372	    0.052204	    0.061092	    0.113295	    0.060446	    0.068725	    0.129171	    0.031871	    0.046130	    0.078001	   -0.018236	   -0.011477	   -0.029713	    0.030781	    0.027084	    0.057865	    0.012127	   -0.007762	    0.004365	   -0.020134	   -0.010500	   -0.030634	    0.020657	    0.025609	    0.046266	    0.048034	    0.036444	    0.084478	    0.026448	    0.049134	    0.075582	    0.002847	    0.001751	    0.004597	    0.048103	   -0.033286	    0.014816	    0.043620	    0.053182	    0.096802	    0.017548	   -0.008577	    0.008971	   -0.002987	   -0.004456	   -0.007442	   -0.010505	    0.007860	   -0.002645	    0.006375	    0.011430	    0.017805	    0.005908	   -0.003611	    0.002297	    0.093763	    0.091197	    0.184960
     5.175	0	0	    0	    0.004193	   -0.023265	   -0.019072	    0.011623	    0.025242	    0.036865	   -0.002506	    0.032990	    0.030484	    0.053430	    0.062343	    0.115773	    0.062410	    0.067228	    0.129638	    0.037406	    0.040995	    0.078401	   -0.015287	   -0.009507	   -0.024793	    0.032068	    0.031109	    0.063178	    0.015907	   -0.010694	    0.005213	   -0.018643	   -0.009780	   -0.028423	    0.022523	    0.026313	    0.048836	    0.050158	    0.037011	    0.087169	    0.028895	    0.049253	    0.078148	    0.009957	   -0.006020	    0.003938	    0.050328	   -0.032582	    0.017746	    0.048403	    0.051284	    0.099687	    0.019818	   -0.008758	    0.011061	   -0.001495	   -0.003348	   -0.004843	   -0.009372	    0.008257	   -0.001115	    0.008542	    0.011858	    0.020401	    0.007603	   -0.003654	    0.003948	    0.088984	    0.094931	    0.183916
     5.250	0	0	    0	    0.000013	   -0.017372	   -0.017359	    0.010828	    0.024879	    0.035707	   -0.004638	    0.032533	    0.027894	    0.052004	    0.063068	    0.115072	    0.062601	    0.068258	    0.130859	    0.034424	    0.042918	    0.077341	   -0.014319	   -0.016042	   -0.030361	    0.030462	    0.030702	    0.061164	    0.014688	   -0.009601	    0.005087	   -0.019335	   -0.009805	   -0.029140	    0.021237	    0.027259	    0.048496	    0.050739	    0.038072	    0.088811	    0.028842	    0.050678	    0.079520	    0.010817	   -0.005529	    0.005289	    0.048150	   -0.032152	    0.015998	    0.047298	    0.052453	    0.099751	    0.018831	   -0.008180	    0.010651	   -0.001507	   -0.003412	   -0.004919	   -0.010075	    0.008322	   -0.001752	    0.009037	    0.011977	    0.021014	    0.006040	   -0.001748	    0.004292	    0.090730	    0.093289	    0.184019
     5.325	0	0	    0	    0.002087	   -0.023044	   -0.020956	    0.011134	    0.024361	    0.035496	   -0.005889	    0.032969	    0.027080	    0.051129	    0.062124	    0.113252	    0.063243	    0.068433	    0.131675	    0.032736	    0.044550	    0.077285	   -0.016639	   -0.012540	   -0.029180	    0.033111	    0.028162	    0.061272	    0.014698	   -0.009421	    0.005277	   -0.019800	   -0.009443	   -0.029243	    0.021855	    0.027200	    0.049055	    0.050982	    0.037814	    0.088796	    0.028932	    0.050412	    0.079344	    0.007122	   -0.002428	    0.004694	    0.046611	   -0.031535	    0.015077	    0.047593	    0.053088	    0.100681	    0.019112	   -0.008691	    0.010421	   -0.001567	   -0.002904	   -0.004470	   -0.010854	    0.008769	   -0.002085	    0.008679	    0.012626	    0.021305	    0.006811	   -0.002934	    0.003876	    0.086613	    0.093512	    0.180124
     5.400	0	0	    0	   -0.010646	   -0.009360	   -0.020006	    0.010491	    0.024071	    0.034562	   -0.005881	    0.031371	    0.025489	    0.050613	    0.061712	    0.112325	    0.061952	    0.069486	    0.131437	    0.033786	    0.042335	    0.076121	   -0.013967	   -0.017959	   -0.031926	    0.030437	    0.029926	    0.060363	    0.011830	   -0.005351	    0.006479	   -0.019996	   -0.009931	   -0.029927	    0.021177	    0.027418	    0.048595	    0.050865	    0.038363	    0.089228	    0.029670	    0.050695	    0.080365	    0.012787	   -0.009485	    0.003302	    0.044745	   -0.027676	    0.017070	    0.046387	    0.054044	    0.100431	    0.018766	   -0.008740	    0.010026	   -0.002221	   -0.002851	   -0.005072	   -0.010982	    0.008429	   -0.002554	    0.008007	    0.012611	    0.020618	    0.006716	   -0.003101	    0.003615	    0.088637	    0.091728	    0.180365
     5.475	0	0	    0	    0.003840	   -0.020994	   -0.017154	    0.008380	    0.025718	    0.034098	   -0.008113	    0.031933	    0.023821	    0.050910	    0.061318	    0.112229	    0.063968	    0.067812	    0.131780	    0.037119	    0.040105	    0.077225	   -0.010400	   -0.021681	   -0.032081	    0.032670	    0.026559	    0.059229	    0.015751	   -0.010243	    0.005508	   -0.020948	   -0.009836	   -0.030784	    0.019821	    0.027706	    0.047527	    0.050317	    0.038314	    0.088631	    0.028469	    0.050817	    0.079287	    0.011030	   -0.006867	    0.004164	    0.039966	   -0.025501	    0.014466	    0.047995	    0.052731	    0.100726	    0.018469	   -0.009329	    0.009141	   -0.003553	   -0.002298	   -0.005851	   -0.012731	    0.009088	   -0.003643	    0.007628	    0.011765	    0.019393	    0.008526	   -0.005362	    0.003164	    0.084512	    0.097177	    0.181689
     5.550	0	0	    0	   -0.000449	   -0.023464	   -0.023913	    0.007296	    0.025845	    0.033141	   -0.010329	    0.031867	    0.021537	    0.051009	    0.060391	    0.111400	    0.062785	    0.067643	    0.130428	    0.029248	    0.045188	    0.074436	   -0.022584	   -0.011227	   -0.033811	    0.030596	    0.028117	    0.058713	    0.013776	   -0.009784	    0.003992	   -0.022893	   -0.009718	   -0.032611	    0.018057	    0.027963	    0.046020	    0.049290	    0.038496	    0.087786	    0.028144	    0.050115	    0.078259	    0.007134	   -0.001411	    0.005724	    0.046064	   -0.036417	    0.009647	    0.046491	    0.053556	    0.100047	    0.017141	   -0.009289	    0.007851	   -0.005195	   -0.002865	   -0.008060	   -0.013859	    0.008641	   -0.005218	    0.005525	    0.012034	    0.017559	    0.005183	   -0.003275	    0.001908	    0.089821	    0.091773	    0.181594
     5.625	0	0	    0	    0.002201	   -0.024398	   -0.022197	    0.005935	    0.025307	    0.031242	   -0.011528	    0.031000	    0.019472	    0.048782	    0.060816	    0.109598	    0.063109	    0.067035	    0.130143	    0.030597	    0.041659	    0.072256	   -0.018337	   -0.014690	   -0.033026	    0.029338	    0.027047	    0.056385	    0.011070	   -0.007885	    0.003186	   -0.023980	   -0.010422	   -0.034402	    0.016676	    0.027310	    0.043986	    0.048455	    0.038467	    0.086922	    0.027392	    0.050833	    0.078225	    0.009702	   -0.006807	    0.002895	    0.038210	   -0.025340	    0.012869	    0.045996	    0.053320	    0.099316	    0.015240	   -0.009378	    0.005862	   -0.006741	   -0.003170	   -0.009911	   -0.015570	    0.008940	   -0.006629	    0.004080	    0.011431	    0.015511	    0.004847	   -0.004688	    0.000159	    0.085531	    0.092973	    0.178505
     5.700	0	0	    0	   -0.001941	   -0.025182	   -0.027123	    0.004413	    0.024029	    0.028442	   -0.012918	    0.030338	    0.017420	    0.047455	    0.060558	    0.108013	    0.061526	    0.068736	    0.130262	    0.028893	    0.044124	    0.073017	   -0.016663	   -0.019017	   -0.035680	    0.025552	    0.027829	    0.053382	    0.011348	   -0.010734	    0.000615	   -0.025215	   -0.010372	   -0.035586	    0.015607	    0.027447	    0.043055	    0.047239	    0.038444	    0.085683	    0.026978	    0.050253	    0.077231	    0.007992	   -0.007782	    0.000210	    0.041819	   -0.031558	    0.010261	    0.045509	    0.052322	    0.097830	    0.014056	   -0.009528	    0.004529	   -0.008044	   -0.003429	   -0.011474	   -0.016869	    0.008517	   -0.008352	    0.002214	    0.011289	    0.013503	    0.002859	   -0.004007	   -0.001148	    0.082413	    0.094149	    0.176562
     5.775	0	0	    0	   -0.011463	   -0.016104	   -0.027567	    0.002776	    0.023691	    0.026467	   -0.015145	    0.031504	    0.016359	    0.047067	    0.060710	    0.107776	    0.061102	    0.067994	    0.129097	    0.029179	    0.040898	    0.070077	   -0.016360	   -0.019808	   -0.036168	    0.026113	    0.022638	    0.048750	    0.009991	   -0.011754	   -0.001763	   -0.026438	   -0.010455	   -0.036893	    0.014364	    0.027982	    0.042345	    0.046412	    0.038188	    0.084600	    0.025197	    0.050941	    0.076138	    0.004558	   -0.006163	   -0.001606	    0.033733	   -0.024983	    0.008751	    0.041857	    0.052534	    0.094391	    0.012435	   -0.010120	    0.002315	   -0.010111	   -0.002999	   -0.013110	   -0.018448	    0.008401	   -0.010047	    0.000181	    0.011467	    0.011648	    0.001100	   -0.004185	   -0.003085	    0.083066	    0.091988	    0.175055
     5.850	0	0	    0	   -0.006163	   -0.019240	   -0.025403	    0.002713	    0.023845	    0.026558	   -0.016750	    0.031646	    0.014896	    0.045629	    0.060497	    0.106125	    0.060206	    0.068541	    0.128747	    0.028657	    0.044352	    0.073009	   -0.022492	   -0.009490	   -0.031982	    0.020485	    0.029491	    0.049976	    0.011053	   -0.010706	    0.000347	   -0.027631	   -0.010649	   -0.038280	    0.013547	    0.027667	    0.041215	    0.044883	    0.038502	    0.083385	    0.024345	    0.050840	    0.075186	    0.009136	   -0.010250	   -0.001114	    0.041927	   -0.033708	    0.008219	    0.042457	    0.051588	    0.094046	    0.010931	   -0.010311	    0.000620	   -0.010869	   -0.003541	   -0.014411	   -0.019912	    0.008204	   -0.011708	   -0.001150	    0.011323	    0.010172	   -0.000138	   -0.004871	   -0.005009	    0.078283	    0.094750	    0.173033
     5.925	0	0	    0	   -0.017747	   -0.006979	   -0.024725	   -0.001056	    0.025532	    0.024476	   -0.018273	    0.031026	    0.012753	    0.043213	    0.061380	    0.104593	    0.059753	    0.067740	    0.127493	    0.024803	    0.044946	    0.069748	   -0.024806	   -0.012902	   -0.037708	    0.023874	    0.027820	    0.051694	    0.007618	   -0.008691	   -0.001073	   -0.028922	   -0.010861	   -0.039783	    0.012140	    0.027674	    0.039813	    0.043839	    0.037909	    0.081747	    0.023371	    0.050706	    0.074077	    0.000564	   -0.002190	   -0.001626	    0.038110	   -0.032010	    0.006100	    0.040284	    0.053068	    0.093352	    0.009255	   -0.010618	   -0.001363	   -0.013045	   -0.003317	   -0.016362	   -0.021467	    0.007790	   -0.013677	   -0.002636	    0.011133	    0.008497	   -0.001887	   -0.004343	   -0.006230	    0.075934	    0.091921	    0.167856
     6.000	0	0	    0	   -0.012621	   -0.016444	   -0.029065	    0.002033	    0.023093	    0.025126	   -0.015086	    0.029276	    0.014190	    0.041600	    0.061235	    0.102836	    0.058362	    0.068821	    0.127183	    0.027896	    0.043321	    0.071217	   -0.018585	   -0.017555	   -0.036139	    0.021778	    0.025763	    0.047541	    0.008798	   -0.011249	   -0.002451	   -0.026954	   -0.011439	   -0.038393	    0.015043	    0.026508	    0.041551	    0.042824	    0.037702	    0.080526	    0.023891	    0.049930	    0.073821	    0.002576	   -0.003174	   -0.000599	    0.048501	   -0.036790	    0.011711	    0.041673	    0.051602	    0.093275	    0.011317	   -0.011773	   -0.000456	   -0.008238	   -0.004562	   -0.012799	   -0.018517	    0.006748	   -0.011769	   -0.001791	    0.010368	    0.008577	    0.001423	   -0.007165	   -0.005742	    0.081480	    0.091217	    0.172697
     6.075	0	0	    0	   -0.008041	   -0.014464	   -0.022505	    0.004796	    0.024665	    0.029461	   -0.008190	    0.032295	    0.024106	    0.045858	    0.060463	    0.106321	    0.060959	    0.067977	    0.128937	    0.026196	    0.047710	    0.073906	   -0.023732	   -0.008310	   -0.032042	    0.025138	    0.029156	    0.054293	    0.010605	   -0.009385	    0.001221	   -0.022332	   -0.009974	   -0.032306	    0.018421	    0.027890	    0.046311	    0.046117	    0.037444	    0.083561	    0.026838	    0.050835	    0.077672	    0.006051	   -0.001697	    0.004353	    0.047171	   -0.033173	    0.013998	    0.043907	    0.054008	    0.097915	    0.017195	   -0.010059	    0.007136	   -0.002937	   -0.003879	   -0.006816	   -0.014232	    0.008191	   -0.006041	    0.003781	    0.011335	    0.015115	    0.005336	   -0.004417	    0.000919	    0.090100	    0.093542	    0.183642
     6.150	0	0	    0	   -0.007133	   -0.008338	   -0.015471	    0.008920	    0.022473	    0.031393	   -0.003406	    0.032205	    0.028799	    0.049184	    0.061713	    0.110897	    0.062440	    0.069156	    0.131596	    0.033182	    0.043611	    0.076793	   -0.013870	   -0.015693	   -0.029562	    0.030210	    0.025931	    0.056141	    0.013153	   -0.010740	    0.002413	   -0.019165	   -0.009524	   -0.028689	    0.021003	    0.026753	    0.047755	    0.048522	    0.037940	    0.086462	    0.030050	    0.049850	    0.079901	    0.010320	   -0.003050	    0.007270	    0.046991	   -0.029195	    0.017795	    0.046690	    0.053661	    0.100351	    0.020363	   -0.009308	    0.011055	   -0.000275	   -0.002655	   -0.002930	   -0.011605	    0.008807	   -0.002798	    0.007151	    0.012378	    0.019529	    0.008527	   -0.004959	    0.003568	    0.089445	    0.095729	    0.185174
     6.225	0	0	    0	    0.002329	   -0.020914	   -0.018585	    0.009573	    0.023403	    0.032977	   -0.003939	    0.034343	    0.030404	    0.049160	    0.063114	    0.112274	    0.063808	    0.068710	    0.132518	    0.034425	    0.040100	    0.074525	   -0.009204	   -0.020697	   -0.029901	    0.031083	    0.024816	    0.055899	    0.013616	   -0.010565	    0.003051	   -0.017723	   -0.009203	   -0.026926	    0.021242	    0.027487	    0.048729	    0.050102	    0.038534	    0.088636	    0.030087	    0.050894	    0.080981	    0.015734	   -0.010795	    0.004939	    0.041223	   -0.027698	    0.013526	    0.048198	    0.052262	    0.100460	    0.021874	   -0.008671	    0.013203	    0.000725	   -0.001824	   -0.001099	   -0.011125	    0.009476	   -0.001649	    0.008702	    0.012841	    0.021543	    0.009675	   -0.004991	    0.004684	    0.080953	    0.097537	    0.178491
     6.300	0	0	    0	    0.006799	   -0.028392	   -0.021593	    0.008806	    0.023099	    0.031905	   -0.005363	    0.033185	    0.027822	    0.049734	    0.062890	    0.112624	    0.065124	    0.067932	    0.133056	    0.033354	    0.043151	    0.076505	   -0.012434	   -0.017899	   -0.030332	    0.032816	    0.021292	    0.054108	    0.013616	   -0.010565	    0.003051	   -0.018694	   -0.009000	   -0.027694	    0.020423	    0.027334	    0.047757	    0.049924	    0.038831	    0.088755	    0.029436	    0.051045	    0.080481	    0.008001	    0.000112	    0.008114	    0.046339	   -0.029025	    0.017314	    0.048103	    0.051413	    0.099516	    0.021082	   -0.008670	    0.012412	   -0.000043	   -0.001471	   -0.001514	   -0.011133	    0.009252	   -0.001881	    0.007827	    0.013127	    0.020954	    0.009875	   -0.005742	    0.004133	    0.082372	    0.096074	    0.178446
     6.375	0	0	    0	   -0.006689	   -0.013151	   -0.019840	    0.009469	    0.023154	    0.032623	   -0.005610	    0.032633	    0.027023	    0.050254	    0.061407	    0.111662	    0.064665	    0.068310	    0.132975	    0.031534	    0.046324	    0.077858	   -0.015113	   -0.012469	   -0.027582	    0.029959	    0.024629	    0.054588	    0.013769	   -0.011296	    0.002473	   -0.018482	   -0.009204	   -0.027686	    0.020319	    0.027153	    0.047472	    0.050069	    0.038627	    0.088696	    0.030974	    0.049861	    0.080835	    0.012956	   -0.005197	    0.007759	    0.046874	   -0.032171	    0.014703	    0.047110	    0.050819	    0.097929	    0.021205	   -0.008998	    0.012207	    0.000253	   -0.001683	   -0.001429	   -0.011331	    0.009492	   -0.001839	    0.007823	    0.012667	    0.020490	    0.009100	   -0.005177	    0.003924	    0.085234	    0.091157	    0.176391
     6.450	0	0	    0	   -0.007712	   -0.013673	   -0.021385	    0.007661	    0.023383	    0.031044	   -0.006765	    0.032965	    0.026200	    0.050175	    0.061771	    0.111946	    0.063795	    0.068921	    0.132716	    0.031796	    0.043913	    0.075709	   -0.012754	   -0.021132	   -0.033886	    0.026674	    0.023775	    0.050448	    0.014200	   -0.012031	    0.002169	   -0.019414	   -0.008855	   -0.028269	    0.019642	    0.027191	    0.046833	    0.049693	    0.039219	    0.088912	    0.030724	    0.050395	    0.081120	    0.008052	   -0.000754	    0.007298	    0.043479	   -0.032134	    0.011345	    0.047913	    0.049478	    0.097391	    0.020516	   -0.008826	    0.011690	   -0.000033	   -0.001754	   -0.001787	   -0.011584	    0.009354	   -0.002230	    0.007610	    0.012312	    0.019922	    0.008655	   -0.005054	    0.003601	    0.087275	    0.089444	    0.176719
     6.525	0	0	    0	    0.006731	   -0.025255	   -0.018523	    0.006633	    0.023040	    0.029673	   -0.007891	    0.032593	    0.024702	    0.050064	    0.061648	    0.111712	    0.065315	    0.067791	    0.133106	    0.032206	    0.043943	    0.076149	   -0.020676	   -0.008166	   -0.028842	    0.029502	    0.018356	    0.047859	    0.011061	   -0.009581	    0.001480	   -0.020106	   -0.008867	   -0.028973	    0.018494	    0.026852	    0.045346	    0.049728	    0.039054	    0.088782	    0.030298	    0.050521	    0.080819	    0.008459	   -0.005476	    0.002983	    0.045989	   -0.031728	    0.014261	    0.045919	    0.050630	    0.096549	    0.019856	   -0.009453	    0.010403	   -0.001296	   -0.001460	   -0.002756	   -0.012541	    0.009493	   -0.003049	    0.006431	    0.012393	    0.018824	    0.007449	   -0.005449	    0.001999	    0.088961	    0.084591	    0.173551
     6.600	0	0	    0	    0.001270	   -0.025034	   -0.023764	    0.005922	    0.022556	    0.028478	   -0.009811	    0.031228	    0.021417	    0.048209	    0.062370	    0.110579	    0.064167	    0.068159	    0.132326	    0.032356	    0.042289	    0.074645	   -0.015634	   -0.017667	   -0.033301	    0.023691	    0.023344	    0.047035	    0.012830	   -0.012574	    0.000256	   -0.021329	   -0.008635	   -0.029963	    0.016468	    0.026810	    0.043278	    0.048733	    0.038941	    0.087674	    0.030043	    0.050411	    0.080454	    0.008525	   -0.008231	    0.000294	    0.040700	   -0.031549	    0.009150	    0.045027	    0.050764	    0.095792	    0.019119	   -0.010022	    0.009098	   -0.002333	   -0.001835	   -0.004169	   -0.014042	    0.009565	   -0.004477	    0.004635	    0.012405	    0.017040	    0.007693	   -0.008062	   -0.000369	    0.089948	    0.083722	    0.173669
     6.675	0	0	    0	   -0.009655	   -0.020195	   -0.029850	    0.003710	    0.021714	    0.025424	   -0.011958	    0.030211	    0.018253	    0.047328	    0.061769	    0.109097	    0.062687	    0.068642	    0.131329	    0.030261	    0.041852	    0.072112	   -0.020361	   -0.016443	   -0.036804	    0.022480	    0.022261	    0.044741	    0.009842	   -0.011409	   -0.001567	   -0.022418	   -0.008982	   -0.031400	    0.014967	    0.025773	    0.040740	    0.047686	    0.039174	    0.086860	    0.028372	    0.050852	    0.079223	    0.009834	   -0.011121	   -0.001286	    0.039461	   -0.034119	    0.005342	    0.044235	    0.050964	    0.095199	    0.017347	   -0.010281	    0.007066	   -0.003790	   -0.002642	   -0.006432	   -0.015357	    0.009664	   -0.005692	    0.003112	    0.012104	    0.015216	    0.005064	   -0.005897	   -0.000832	    0.081511	    0.089324	    0.170835
     6.750	0	0	    0	   -0.002623	   -0.024917	   -0.027540	    0.004555	    0.019877	    0.024431	   -0.013175	    0.029242	    0.016067	    0.046661	    0.061475	    0.108136	    0.063832	    0.068282	    0.132115	    0.035364	    0.038586	    0.073950	   -0.011097	   -0.024463	   -0.035560	    0.024789	    0.019352	    0.044141	    0.010280	   -0.012151	   -0.001871	   -0.023199	   -0.009290	   -0.032489	    0.013158	    0.025404	    0.038561	    0.046448	    0.039045	    0.085492	    0.027456	    0.049902	    0.077358	    0.011161	   -0.013062	   -0.001901	    0.034619	   -0.029133	    0.005486	    0.042947	    0.051641	    0.094588	    0.015622	   -0.010137	    0.005485	   -0.005409	   -0.002711	   -0.008120	   -0.016737	    0.009844	   -0.006894	    0.001816	    0.011893	    0.013708	    0.003620	   -0.006149	   -0.002529	    0.070087	    0.099354	    0.169442
     6.825	0	0	    0	   -0.007299	   -0.018400	   -0.025699	    0.002391	    0.021544	    0.023934	   -0.015147	    0.030036	    0.014889	    0.046265	    0.061574	    0.107839	    0.063091	    0.067935	    0.131026	    0.027676	    0.044746	    0.072422	   -0.018803	   -0.015996	   -0.034799	    0.021504	    0.021677	    0.043181	    0.009384	   -0.012523	   -0.003138	   -0.025045	   -0.009025	   -0.034069	    0.011735	    0.024222	    0.035957	    0.045155	    0.038932	    0.084088	    0.026204	    0.049373	    0.075577	    0.008902	   -0.009978	   -0.001076	    0.032247	   -0.030284	    0.001964	    0.042465	    0.050771	    0.093236	    0.014419	   -0.010645	    0.003775	   -0.006548	   -0.003017	   -0.009565	   -0.018119	    0.009831	   -0.008288	    0.000283	    0.011978	    0.012261	    0.002481	   -0.006463	   -0.003982	    0.072275	    0.096629	    0.168904
     6.900	0	0	    0	   -0.007986	   -0.018133	   -0.026119	   -0.000100	    0.022099	    0.021999	   -0.016369	    0.029209	    0.012840	    0.045100	    0.062137	    0.107237	    0.061448	    0.068832	    0.130280	    0.028752	    0.041704	    0.070456	   -0.016316	   -0.021947	   -0.038263	    0.018620	    0.021949	    0.040569	    0.009831	   -0.013742	   -0.003911	   -0.026185	   -0.009317	   -0.035502	    0.010999	    0.023724	    0.034723	    0.043912	    0.038657	    0.082568	    0.025057	    0.049381	    0.074438	    0.006168	   -0.009171	   -0.003003	    0.045319	   -0.042693	    0.002627	    0.041990	    0.049280	    0.091270	    0.012951	   -0.010536	    0.002414	   -0.008260	   -0.003161	   -0.011421	   -0.019297	    0.009389	   -0.009908	   -0.001338	    0.011898	    0.010561	    0.001286	   -0.006449	   -0.005163	    0.080323	    0.087930	    0.168254
     6.975	0	0	    0	   -0.010854	   -0.021633	   -0.032487	   -0.001402	    0.021605	    0.020203	   -0.019112	    0.029704	    0.010592	    0.044012	    0.062062	    0.106074	    0.059894	    0.068933	    0.128827	    0.027958	    0.041580	    0.069538	   -0.021796	   -0.018668	   -0.040464	    0.019621	    0.017865	    0.037486	    0.006272	   -0.012235	   -0.005963	   -0.027252	   -0.009406	   -0.036659	    0.009533	    0.023982	    0.033515	    0.042993	    0.038395	    0.081388	    0.024224	    0.049782	    0.074006	    0.003497	   -0.009267	   -0.005771	    0.027592	   -0.031127	   -0.003535	    0.036905	    0.051852	    0.088757	    0.010879	   -0.010869	    0.000010	   -0.010338	   -0.003228	   -0.013566	   -0.021459	    0.009156	   -0.012302	   -0.003575	    0.011959	    0.008384	   -0.001173	   -0.006247	   -0.007420	    0.072585	    0.088589	    0.161175
     7.050	0	0	    0	   -0.003301	   -0.028809	   -0.032110	    0.000367	    0.019644	    0.020012	   -0.017431	    0.027070	    0.009638	    0.042644	    0.061269	    0.103914	    0.060744	    0.067368	    0.128113	    0.026855	    0.039510	    0.066365	   -0.020777	   -0.022779	   -0.043556	    0.018506	    0.019017	    0.037523	    0.005230	   -0.011975	   -0.006745	   -0.026682	   -0.010054	   -0.036736	    0.011909	    0.022514	    0.034423	    0.041965	    0.038551	    0.080516	    0.024569	    0.049362	    0.073931	    0.005280	   -0.011738	   -0.006458	    0.037539	   -0.035088	    0.002451	    0.039371	    0.048268	    0.087639	    0.011526	   -0.012319	   -0.000793	   -0.007983	   -0.004299	   -0.012282	   -0.020303	    0.008145	   -0.012158	   -0.004011	    0.011007	    0.006996	   -0.000030	   -0.006694	   -0.006723	    0.077626	    0.090328	    0.167954
     7.125	0	0	    0	   -0.005921	   -0.018936	   -0.024857	    0.002736	    0.024205	    0.026941	   -0.011011	    0.030595	    0.019584	    0.047179	    0.060004	    0.107183	    0.062001	    0.068617	    0.130618	    0.026403	    0.043163	    0.069566	   -0.023603	   -0.016469	   -0.040071	    0.019947	    0.023390	    0.043337	    0.009093	   -0.012216	   -0.003123	   -0.022728	   -0.008798	   -0.031526	    0.016425	    0.023922	    0.040348	    0.045048	    0.037697	    0.082745	    0.027893	    0.050267	    0.078160	    0.006194	   -0.008236	   -0.002042	    0.040766	   -0.034814	    0.005952	    0.041504	    0.049048	    0.090552	    0.016834	   -0.010499	    0.006334	   -0.003125	   -0.003550	   -0.006675	   -0.016434	    0.008986	   -0.007448	    0.000991	    0.011937	    0.012929	    0.004035	   -0.003903	    0.000132	    0.076945	    0.091118	    0.168063
     7.200	0	0	    0	   -0.001253	   -0.021845	   -0.023098	    0.006533	    0.022501	    0.029034	   -0.006796	    0.029814	    0.023017	    0.050107	    0.060299	    0.110406	    0.063244	    0.068438	    0.131682	    0.029596	    0.042891	    0.072487	   -0.019540	   -0.017570	   -0.037110	    0.025188	    0.020157	    0.045344	    0.013130	   -0.013363	   -0.000234	   -0.020424	   -0.008344	   -0.028769	    0.018272	    0.024046	    0.042318	    0.047323	    0.038529	    0.085852	    0.029233	    0.050737	    0.079970	    0.007394	   -0.010484	   -0.003090	    0.046487	   -0.037373	    0.009114	    0.042290	    0.048649	    0.090940	    0.018849	   -0.009875	    0.008975	   -0.000439	   -0.002937	   -0.003376	   -0.014294	    0.008872	   -0.005422	    0.002973	    0.012615	    0.015588	    0.006095	   -0.004302	    0.001793	    0.079317	    0.088735	    0.168053
     7.275	0	0	    0	   -0.005296	   -0.013693	   -0.018988	    0.008305	    0.021915	    0.030220	   -0.006479	    0.030999	    0.024520	    0.049012	    0.062837	    0.111849	    0.063985	    0.068781	    0.132766	    0.031604	    0.042455	    0.074059	   -0.015656	   -0.021152	   -0.036808	    0.026262	    0.020878	    0.047140	    0.010902	   -0.009886	    0.001016	   -0.019657	   -0.007924	   -0.027581	    0.018275	    0.024599	    0.042874	    0.048225	    0.038854	    0.087079	    0.030363	    0.051414	    0.081776	    0.012519	   -0.012143	    0.000376	    0.040868	   -0.032586	    0.008282	    0.042372	    0.050308	    0.092680	    0.020117	   -0.009601	    0.010516	   -0.000655	   -0.001971	   -0.002626	   -0.014359	    0.009595	   -0.004764	    0.004288	    0.012534	    0.016821	    0.007239	   -0.003307	    0.003932	    0.078546	    0.093237	    0.171783
     7.350	0	0	    0	    0.000024	   -0.021032	   -0.021008	    0.007142	    0.022143	    0.029284	   -0.007479	    0.029801	    0.022322	    0.050788	    0.061477	    0.112265	    0.064423	    0.068132	    0.132555	    0.033751	    0.038348	    0.072098	   -0.013084	   -0.024330	   -0.037414	    0.022953	    0.021144	    0.044096	    0.014033	   -0.013465	    0.000568	   -0.020284	   -0.008285	   -0.028568	    0.017525	    0.024014	    0.041539	    0.047958	    0.039392	    0.087350	    0.030148	    0.050635	    0.080783	    0.012192	   -0.014828	   -0.002637	    0.045053	   -0.038882	    0.006171	    0.041699	    0.049091	    0.090790	    0.018908	   -0.009312	    0.009596	   -0.000832	   -0.002039	   -0.002871	   -0.014578	    0.009460	   -0.005119	    0.003257	    0.012732	    0.015989	    0.007419	   -0.004927	    0.002492	    0.080705	    0.087302	    0.168008
     7.425	0	0	    0	   -0.006270	   -0.020901	   -0.027171	    0.007108	    0.022366	    0.029473	   -0.006701	    0.029274	    0.022574	    0.050763	    0.061765	    0.112528	    0.063849	    0.069253	    0.133101	    0.029219	    0.043993	    0.073212	   -0.014637	   -0.020772	   -0.035409	    0.021550	    0.021106	    0.042657	    0.013115	   -0.014667	   -0.001552	   -0.019978	   -0.008335	   -0.028313	    0.017254	    0.023798	    0.041052	    0.048329	    0.038787	    0.087116	    0.029780	    0.050744	    0.080524	    0.007354	   -0.009591	   -0.002237	    0.040174	   -0.033532	    0.006642	    0.042391	    0.048172	    0.090564	    0.019032	   -0.009824	    0.009208	   -0.000946	   -0.002156	   -0.003103	   -0.014556	    0.009608	   -0.004947	    0.003083	    0.012718	    0.015801	    0.005057	   -0.002917	    0.002140	    0.082874	    0.089698	    0.172572
     7.500	0	0	    0	   -0.003190	   -0.023000	   -0.026190	    0.006815	    0.021970	    0.028785	   -0.006954	    0.028398	    0.021444	    0.050110	    0.062242	    0.112353	    0.064579	    0.067932	    0.132511	    0.035429	    0.035964	    0.071393	   -0.010125	   -0.028042	   -0.038168	    0.021400	    0.018700	    0.040101	    0.012831	   -0.013144	   -0.000313	   -0.020709	   -0.008201	   -0.028909	    0.016066	    0.024213	    0.040279	    0.048175	    0.039144	    0.087319	    0.029130	    0.050776	    0.079906	    0.008165	   -0.012963	   -0.004798	    0.037347	   -0.033707	    0.003640	    0.042199	    0.047635	    0.089834	    0.018183	   -0.009192	    0.008991	   -0.001859	   -0.002116	   -0.003975	   -0.015520	    0.009747	   -0.005773	    0.002840	    0.012414	    0.015254	    0.005933	   -0.005061	    0.000873	    0.077018	    0.087361	    0.164379
     7.575	0	0	    0	   -0.006412	   -0.014697	   -0.021109	    0.005725	    0.022666	    0.028390	   -0.010069	    0.029725	    0.019657	    0.051204	    0.061370	    0.112574	    0.063782	    0.069133	    0.132914	    0.032024	    0.039621	    0.071645	   -0.014348	   -0.023551	   -0.037899	    0.017700	    0.022857	    0.040557	    0.011639	   -0.012266	   -0.000627	   -0.022596	   -0.007862	   -0.030458	    0.015561	    0.023773	    0.039334	    0.047568	    0.039410	    0.086978	    0.028317	    0.051343	    0.079660	    0.007739	   -0.013253	   -0.005514	    0.041098	   -0.037205	    0.003893	    0.042103	    0.047424	    0.089527	    0.017430	   -0.010365	    0.007065	   -0.003061	   -0.002471	   -0.005531	   -0.016821	    0.009842	   -0.006979	    0.001649	    0.012228	    0.013876	    0.003925	   -0.003962	   -0.000037	    0.077275	    0.089078	    0.166353
     7.650	0	0	    0	   -0.006721	   -0.017318	   -0.024040	    0.004589	    0.022946	    0.027535	   -0.012092	    0.029752	    0.017661	    0.050841	    0.060678	    0.111519	    0.063953	    0.068727	    0.132679	    0.029831	    0.042662	    0.072493	   -0.018032	   -0.018989	   -0.037020	    0.021969	    0.019781	    0.041750	    0.007458	   -0.007391	    0.000067	   -0.023269	   -0.008260	   -0.031529	    0.014563	    0.023309	    0.037872	    0.046494	    0.039124	    0.085618	    0.026549	    0.051700	    0.078248	    0.003687	   -0.011562	   -0.007875	    0.039968	   -0.036840	    0.003129	    0.041313	    0.048570	    0.089883	    0.015594	   -0.009580	    0.006014	   -0.004092	   -0.002430	   -0.006522	   -0.017315	    0.009479	   -0.007836	    0.000224	    0.012717	    0.012941	    0.001674	   -0.003438	   -0.001763	    0.077494	    0.089466	    0.166960
     7.725	0	0	    0	   -0.004660	   -0.024125	   -0.028784	    0.001070	    0.024681	    0.025750	   -0.012932	    0.028473	    0.015541	    0.048911	    0.061320	    0.110231	    0.063537	    0.067774	    0.131311	    0.029930	    0.039962	    0.069892	   -0.020994	   -0.019260	   -0.040253	    0.020798	    0.016918	    0.037715	    0.008792	   -0.012087	   -0.003294	   -0.024707	   -0.008175	   -0.032882	    0.012958	    0.023467	    0.036424	    0.045744	    0.038568	    0.084311	    0.026038	    0.050484	    0.076521	    0.005599	   -0.015464	   -0.009865	    0.031387	   -0.038125	   -0.006738	    0.039756	    0.048601	    0.088357	    0.014107	   -0.010063	    0.004044	   -0.005750	   -0.002622	   -0.008371	   -0.018994	    0.009658	   -0.009336	   -0.000820	    0.012320	    0.011500	    0.000276	   -0.004834	   -0.004558	    0.069342	    0.091182	    0.160524
     7.800	0	0	    0	    0.001096	   -0.032007	   -0.030911	    0.001783	    0.021565	    0.023347	   -0.014302	    0.028583	    0.014281	    0.047834	    0.061296	    0.109130	    0.063216	    0.067687	    0.130903	    0.026452	    0.043455	    0.069907	   -0.023641	   -0.018324	   -0.041965	    0.016991	    0.019403	    0.036395	    0.008930	   -0.012886	   -0.003956	   -0.025577	   -0.008723	   -0.034301	    0.012026	    0.023785	    0.035810	    0.044795	    0.038359	    0.083154	    0.025184	    0.050241	    0.075425	    0.002066	   -0.013292	   -0.011227	    0.034488	   -0.039620	   -0.005133	    0.040162	    0.046635	    0.086797	    0.012854	   -0.010582	    0.002272	   -0.006981	   -0.002478	   -0.009459	   -0.019809	    0.009207	   -0.010602	   -0.002036	    0.012354	    0.010318	    0.000231	   -0.006799	   -0.006568	    0.073231	    0.089750	    0.162981
     7.875	0	0	    0	   -0.000493	   -0.030595	   -0.031087	   -0.000284	    0.021632	    0.021348	   -0.015634	    0.028586	    0.012952	    0.046877	    0.060949	    0.107826	    0.061162	    0.068805	    0.129966	    0.031077	    0.039117	    0.070193	   -0.020315	   -0.025886	   -0.046200	    0.017454	    0.016273	    0.033727	    0.007445	   -0.012911	   -0.005466	   -0.025723	   -0.008723	   -0.034445	    0.010812	    0.023850	    0.034662	    0.043938	    0.038336	    0.082274	    0.024305	    0.050597	    0.074902	    0.006616	   -0.017204	   -0.010588	    0.030321	   -0.040583	   -0.010263	    0.036761	    0.048502	    0.085263	    0.011621	   -0.010717	    0.000904	   -0.007497	   -0.002434	   -0.009931	   -0.020710	    0.009359	   -0.011351	   -0.002751	    0.012382	    0.009632	   -0.002189	   -0.005545	   -0.007734	    0.071225	    0.086822	    0.158047
     7.950	0	0	    0	   -0.011586	   -0.017752	   -0.029337	   -0.001601	    0.021114	    0.019513	   -0.018186	    0.029181	    0.010995	    0.043651	    0.062037	    0.105687	    0.060402	    0.067712	    0.128114	    0.026130	    0.041620	    0.067750	   -0.024452	   -0.021573	   -0.046026	    0.010523	    0.020470	    0.030994	    0.005814	   -0.013240	   -0.007426	   -0.026257	   -0.009115	   -0.035372	    0.009208	    0.023903	    0.033111	    0.042553	    0.038486	    0.081040	    0.023439	    0.049922	    0.073361	    0.004076	   -0.015081	   -0.011005	    0.027841	   -0.038919	   -0.011078	    0.035534	    0.047041	    0.082576	    0.010003	   -0.010995	   -0.000992	   -0.007941	   -0.001453	   -0.009394	   -0.021780	    0.009238	   -0.012542	   -0.004159	    0.012640	    0.008481	   -0.003642	   -0.006240	   -0.009882	    0.061323	    0.091512	    0.152835
     8.025	0	0	    0	   -0.014434	   -0.020633	   -0.035067	    0.002032	    0.017710	    0.019743	   -0.016079	    0.027652	    0.011572	    0.043823	    0.060538	    0.104361	    0.059863	    0.067698	    0.127560	    0.029500	    0.038755	    0.068255	   -0.019787	   -0.024369	   -0.044156	    0.014091	    0.016212	    0.030303	    0.005663	   -0.014195	   -0.008532	   -0.024964	   -0.009795	   -0.034759	    0.011630	    0.023185	    0.034815	    0.041618	    0.038291	    0.079909	    0.023258	    0.050519	    0.073777	    0.008165	   -0.012963	   -0.004798	    0.030162	   -0.035673	   -0.005511	    0.035927	    0.046143	    0.082070	    0.011303	   -0.012430	   -0.001127	   -0.004423	   -0.002458	   -0.006882	   -0.020006	    0.008257	   -0.011749	   -0.003758	    0.011666	    0.007907	   -0.001525	   -0.007827	   -0.009351	    0.069281	    0.093065	    0.162346
     8.100	0	0	    0	   -0.001466	   -0.022769	   -0.024235	    0.004858	    0.022694	    0.027552	   -0.010018	    0.030726	    0.020708	    0.047385	    0.059648	    0.107033	    0.062556	    0.066544	    0.129101	    0.027242	    0.041617	    0.068859	   -0.021198	   -0.018241	   -0.039440	    0.021198	    0.015616	    0.036814	    0.012625	   -0.017150	   -0.004525	   -0.020860	   -0.008242	   -0.029102	    0.016773	    0.024610	    0.041383	    0.044753	    0.037716	    0.082470	    0.026502	    0.049696	    0.076197	    0.003544	   -0.006171	   -0.002627	    0.039632	   -0.039804	   -0.000172	    0.040173	    0.045025	    0.085199	    0.017153	   -0.010816	    0.006337	    0.000198	   -0.001125	   -0.000927	   -0.015548	    0.009136	   -0.006412	    0.001894	    0.012269	    0.014163	    0.002781	   -0.005864	   -0.003083	    0.072820	    0.093607	    0.166427
     8.175	0	0	    0	   -0.012031	   -0.017184	   -0.029215	    0.005584	    0.022931	    0.028515	   -0.007345	    0.031368	    0.024022	    0.048001	    0.062229	    0.110230	    0.062652	    0.067411	    0.130063	    0.028035	    0.041741	    0.069776	   -0.018185	   -0.023575	   -0.041759	    0.018418	    0.018879	    0.037297	    0.010563	   -0.013574	   -0.003011	   -0.019302	   -0.007452	   -0.026755	    0.017940	    0.025510	    0.043450	    0.047060	    0.038810	    0.085870	    0.027050	    0.051226	    0.078277	    0.008114	   -0.010307	   -0.002193	    0.037580	   -0.040775	   -0.003194	    0.038511	    0.047154	    0.085665	    0.018933	   -0.009855	    0.009078	    0.002318	   -0.000594	    0.001724	   -0.013150	    0.009311	   -0.003838	    0.003729	    0.013938	    0.017667	    0.003765	   -0.004673	   -0.000908	    0.077588	    0.088913	    0.166501
     8.250	0	0	    0	   -0.003318	   -0.018017	   -0.021335	    0.005766	    0.018912	    0.024678	   -0.002238	    0.029937	    0.027698	    0.051440	    0.060167	    0.111607	    0.064046	    0.067715	    0.131761	    0.031827	    0.040973	    0.072800	   -0.014613	   -0.024887	   -0.039500	    0.016703	    0.019515	    0.036219	    0.008915	   -0.015669	   -0.006754	   -0.017190	   -0.009053	   -0.026244	    0.016690	    0.022250	    0.038940	    0.047698	    0.039304	    0.087002	    0.028064	    0.050202	    0.078266	    0.010196	   -0.011087	   -0.000891	    0.041041	   -0.043954	   -0.002913	    0.040564	    0.044369	    0.084934	    0.019184	   -0.008187	    0.010997	    0.005432	   -0.002001	    0.003431	   -0.006551	    0.010902	    0.004351	    0.006555	    0.013377	    0.019931	    0.005788	   -0.005924	   -0.000136	    0.081668	    0.083245	    0.164913
     8.325	0	0	    0	   -0.007227	   -0.016096	   -0.023323	    0.008054	    0.016318	    0.024372	   -0.003071	    0.030538	    0.027467	    0.051800	    0.062253	    0.114053	    0.064807	    0.069026	    0.133833	    0.033846	    0.040527	    0.074373	   -0.012351	   -0.023177	   -0.035528	    0.015881	    0.016485	    0.032366	    0.005918	   -0.018982	   -0.013064	   -0.015137	   -0.008626	   -0.023763	    0.017048	    0.020619	    0.037667	    0.048421	    0.038518	    0.086939	    0.027635	    0.050043	    0.077678	    0.014653	   -0.013716	    0.000936	    0.047459	   -0.047636	   -0.000177	    0.038525	    0.045722	    0.084247	    0.018271	   -0.011123	    0.007148	    0.006352	   -0.001714	    0.004638	   -0.008028	    0.012652	    0.004624	    0.006389	    0.015091	    0.021480	    0.002828	   -0.004813	   -0.001985	    0.076979	    0.089157	    0.166136
     8.400	0	0	    0	   -0.006136	   -0.022858	   -0.028994	    0.006585	    0.019343	    0.025928	   -0.004953	    0.030934	    0.025980	    0.050453	    0.062555	    0.113008	    0.064588	    0.068413	    0.133001	    0.028029	    0.043772	    0.071801	   -0.020334	   -0.022444	   -0.042778	    0.014261	    0.014473	    0.028734	    0.008653	   -0.022960	   -0.014307	   -0.016171	   -0.007514	   -0.023685	    0.017352	    0.023037	    0.040388	    0.049064	    0.038784	    0.087848	    0.028600	    0.049741	    0.078341	    0.009834	   -0.011121	   -0.001286	    0.027946	   -0.032814	   -0.004868	    0.039497	    0.044882	    0.084379	    0.018340	   -0.011740	    0.006600	    0.005374	   -0.000196	    0.005178	   -0.009551	    0.012069	    0.002518	    0.006630	    0.014709	    0.021339	    0.002890	   -0.005806	   -0.002915	    0.073613	    0.089123	    0.162736
     8.475	0	0	    0	   -0.002852	   -0.027604	   -0.030456	    0.006015	    0.020353	    0.026368	   -0.006043	    0.030278	    0.024235	    0.050034	    0.062272	    0.112306	    0.063593	    0.069279	    0.132872	    0.031474	    0.039206	    0.070679	   -0.015564	   -0.024387	   -0.039951	    0.015209	    0.015040	    0.030248	    0.006217	   -0.018837	   -0.012621	   -0.017290	   -0.007253	   -0.024543	    0.016542	    0.023861	    0.040404	    0.049018	    0.039403	    0.088421	    0.027162	    0.050508	    0.077670	    0.008358	   -0.012454	   -0.004096	    0.041669	   -0.044793	   -0.003124	    0.039974	    0.045790	    0.085764	    0.017673	   -0.011785	    0.005888	    0.004478	   -0.000519	    0.003958	   -0.009838	    0.012049	    0.002210	    0.006448	    0.015109	    0.021557	    0.002544	   -0.006487	   -0.003943	    0.075271	    0.084302	    0.159573
     8.550	0	0	    0	   -0.009948	   -0.024552	   -0.034501	    0.003393	    0.020377	    0.023770	   -0.007532	    0.030789	    0.023257	    0.049047	    0.063102	    0.112149	    0.064064	    0.068684	    0.132747	    0.025568	    0.045915	    0.071483	   -0.023170	   -0.019036	   -0.042205	    0.012230	    0.013797	    0.026027	    0.005322	   -0.019913	   -0.014591	   -0.018285	   -0.007951	   -0.026236	    0.014148	    0.023037	    0.037185	    0.048120	    0.039690	    0.087810	    0.025088	    0.050655	    0.075743	    0.002987	   -0.007832	   -0.004845	    0.027425	   -0.035861	   -0.008436	    0.038138	    0.046008	    0.084145	    0.016266	   -0.011733	    0.004533	    0.002892	   -0.000238	    0.002654	   -0.009340	    0.012651	    0.003311	    0.004752	    0.016028	    0.020780	    0.000171	   -0.005554	   -0.005383	    0.068413	    0.090178	    0.158591
     8.625	0	0	    0	   -0.014598	   -0.016304	   -0.030901	    0.003457	    0.020223	    0.023680	   -0.009012	    0.030709	    0.021697	    0.049229	    0.062307	    0.111536	    0.063088	    0.069815	    0.132903	    0.030913	    0.041590	    0.072503	   -0.022292	   -0.018865	   -0.041157	    0.012683	    0.013957	    0.026640	    0.005179	   -0.018937	   -0.013758	   -0.019375	   -0.008156	   -0.027531	    0.013505	    0.022272	    0.035777	    0.046732	    0.039321	    0.086053	    0.024547	    0.049693	    0.074240	    0.008762	   -0.015007	   -0.006245	    0.033195	   -0.040378	   -0.007183	    0.036003	    0.047533	    0.083536	    0.015228	   -0.012227	    0.003001	    0.002689	   -0.000882	    0.001807	   -0.010235	    0.013130	    0.002895	    0.004186	    0.015563	    0.019749	   -0.000927	   -0.006294	   -0.007221	    0.070755	    0.087909	    0.158664
     8.700	0	0	    0	   -0.011949	   -0.022601	   -0.034550	    0.002764	    0.018568	    0.021332	   -0.011006	    0.030999	    0.019993	    0.048784	    0.062036	    0.110819	    0.061703	    0.069994	    0.131697	    0.028171	    0.042188	    0.070359	   -0.023770	   -0.020920	   -0.044690	    0.011136	    0.014163	    0.025299	    0.003864	   -0.019292	   -0.015428	   -0.020644	   -0.007862	   -0.028506	    0.011981	    0.022391	    0.034372	    0.046265	    0.038616	    0.084881	    0.023003	    0.049067	    0.072071	    0.005869	   -0.011919	   -0.006050	    0.026967	   -0.038144	   -0.011177	    0.035731	    0.046411	    0.082143	    0.013193	   -0.011852	    0.001341	    0.000659	   -0.000143	    0.000516	   -0.011594	    0.013610	    0.002016	    0.002906	    0.015601	    0.018506	   -0.002244	   -0.007139	   -0.009383	    0.057164	    0.096344	    0.153508
     8.775	0	0	    0	   -0.013443	   -0.018946	   -0.032389	    0.000340	    0.020461	    0.020802	   -0.012707	    0.030589	    0.017882	    0.047214	    0.062479	    0.109693	    0.062316	    0.069404	    0.131719	    0.024194	    0.048194	    0.072388	   -0.030312	   -0.015238	   -0.045550	    0.007752	    0.015949	    0.023702	    0.000402	   -0.016560	   -0.016157	   -0.022411	   -0.007733	   -0.030143	    0.011450	    0.022365	    0.033815	    0.045512	    0.038513	    0.084025	    0.021350	    0.050055	    0.071405	    0.002474	   -0.010317	   -0.007843	    0.020619	   -0.033169	   -0.012550	    0.033518	    0.047769	    0.081288	    0.011377	   -0.012150	   -0.000774	   -0.000649	   -0.000532	   -0.001181	   -0.012799	    0.013303	    0.000503	    0.001586	    0.015441	    0.017027	   -0.004031	   -0.007294	   -0.011325	    0.060067	    0.092438	    0.152505
     8.850	0	0	    0	   -0.013690	   -0.025082	   -0.038771	   -0.000960	    0.019388	    0.018428	   -0.013949	    0.030090	    0.016141	    0.047120	    0.061850	    0.108970	    0.062092	    0.068310	    0.130403	    0.025084	    0.045724	    0.070809	   -0.027087	   -0.019182	   -0.046269	    0.006338	    0.015007	    0.021345	   -0.000183	   -0.016034	   -0.016217	   -0.023543	   -0.008223	   -0.031766	    0.010323	    0.023191	    0.033515	    0.044534	    0.038059	    0.082594	    0.019805	    0.050127	    0.069932	    0.004483	   -0.012992	   -0.008508	    0.015129	   -0.029742	   -0.014612	    0.033043	    0.047664	    0.080708	    0.009687	   -0.012196	   -0.002509	   -0.003003	   -0.000038	   -0.003041	   -0.014547	    0.013630	   -0.000917	   -0.000047	    0.016200	    0.016154	   -0.006412	   -0.006368	   -0.012780	    0.056031	    0.096689	    0.152720
     8.925	0	0	    0	   -0.022041	   -0.018014	   -0.040055	   -0.001669	    0.019153	    0.017484	   -0.014639	    0.029154	    0.014515	    0.045146	    0.062894	    0.108040	    0.060869	    0.068290	    0.129159	    0.027925	    0.040460	    0.068384	   -0.022372	   -0.025030	   -0.047402	    0.008045	    0.009897	    0.017941	    0.000678	   -0.018943	   -0.018265	   -0.024755	   -0.008519	   -0.033274	    0.008200	    0.024055	    0.032255	    0.043251	    0.038299	    0.081550	    0.018461	    0.050102	    0.068563	    0.003902	   -0.010072	   -0.006171	    0.022708	   -0.039905	   -0.017197	    0.031541	    0.046944	    0.078485	    0.007608	   -0.012276	   -0.004667	   -0.004036	   -0.001065	   -0.005102	   -0.015631	    0.013239	   -0.002392	   -0.001387	    0.016195	    0.014808	   -0.008964	   -0.005124	   -0.014088	    0.067849	    0.087155	    0.155004
     9.000	0	0	    0	   -0.016509	   -0.020940	   -0.037449	   -0.001743	    0.018680	    0.016937	   -0.015796	    0.029511	    0.013715	    0.046396	    0.060749	    0.107146	    0.059679	    0.069499	    0.129179	    0.025559	    0.042041	    0.067600	   -0.024739	   -0.022772	   -0.047511	    0.006418	    0.011220	    0.017638	    0.000527	   -0.019691	   -0.019164	   -0.025378	   -0.009107	   -0.034486	    0.009184	    0.022419	    0.031603	    0.041931	    0.037966	    0.079897	    0.018095	    0.048790	    0.066884	    0.002249	   -0.012785	   -0.010537	    0.020897	   -0.037017	   -0.016120	    0.032234	    0.044710	    0.076943	    0.006881	   -0.013358	   -0.006477	   -0.003969	   -0.001600	   -0.005569	   -0.015763	    0.012909	   -0.002854	   -0.002521	    0.015850	    0.013328	   -0.008132	   -0.008850	   -0.016982	    0.056683	    0.091860	    0.148543
     9.075	0	0	    0	   -0.008509	   -0.022831	   -0.031339	    0.004083	    0.019637	    0.023720	   -0.006167	    0.030041	    0.023874	    0.047842	    0.061847	    0.109689	    0.062294	    0.067960	    0.130255	    0.029122	    0.042636	    0.071759	   -0.020535	   -0.023412	   -0.043947	    0.011831	    0.013527	    0.025359	    0.003433	   -0.019386	   -0.015953	   -0.020094	   -0.008450	   -0.028544	    0.016835	    0.023207	    0.040042	    0.043349	    0.036584	    0.079933	    0.020500	    0.048197	    0.068698	    0.006163	   -0.012037	   -0.005874	    0.025666	   -0.038227	   -0.012561	    0.036897	    0.044997	    0.081894	    0.013508	   -0.013051	    0.000457	    0.002867	   -0.000743	    0.002124	   -0.010450	    0.012918	    0.002468	    0.003134	    0.015742	    0.018875	   -0.004626	   -0.008422	   -0.013048	    0.065140	    0.090029	    0.155169
     9.150	0	0	    0	   -0.009948	   -0.024552	   -0.034501	    0.006065	    0.021678	    0.027743	   -0.002249	    0.032052	    0.029802	    0.051620	    0.063553	    0.115173	    0.062539	    0.069330	    0.131869	    0.030236	    0.042694	    0.072929	   -0.016494	   -0.026494	   -0.042988	    0.008399	    0.019376	    0.027774	    0.006344	   -0.019890	   -0.013545	   -0.017638	   -0.007127	   -0.024765	    0.019849	    0.024697	    0.044545	    0.046950	    0.037686	    0.084636	    0.022907	    0.048581	    0.071488	    0.008476	   -0.010219	   -0.001743	    0.028738	   -0.040036	   -0.011298	    0.037858	    0.044839	    0.082697	    0.016035	   -0.010962	    0.005073	    0.005741	    0.000411	    0.006151	   -0.007479	    0.013001	    0.005522	    0.007285	    0.016672	    0.023957	   -0.001711	   -0.009014	   -0.010724	    0.071394	    0.085817	    0.157211
     9.225	0	0	    0	   -0.009202	   -0.020767	   -0.029969	    0.008539	    0.020680	    0.029220	    0.000561	    0.032996	    0.033557	    0.053049	    0.064794	    0.117844	    0.063703	    0.069230	    0.132933	    0.028404	    0.042673	    0.071077	   -0.024868	   -0.018088	   -0.042955	    0.012290	    0.013211	    0.025501	    0.006657	   -0.019300	   -0.012644	   -0.015444	   -0.006585	   -0.022029	    0.022081	    0.025485	    0.047566	    0.049207	    0.037999	    0.087206	    0.024574	    0.049189	    0.073763	    0.010268	   -0.012757	   -0.002489	    0.028252	   -0.039842	   -0.011590	    0.040470	    0.043858	    0.084327	    0.018895	   -0.011169	    0.007725	    0.008712	    0.000876	    0.009589	   -0.005543	    0.014052	    0.008509	    0.009957	    0.017459	    0.027416	   -0.000370	   -0.008027	   -0.008397	    0.069914	    0.086370	    0.156284
     9.300	0	0	    0	   -0.003399	   -0.020315	   -0.023714	    0.007360	    0.023569	    0.030929	   -0.000703	    0.033627	    0.032925	    0.054532	    0.063597	    0.118129	    0.065068	    0.070185	    0.135253	    0.032046	    0.043618	    0.075664	   -0.016820	   -0.022138	   -0.038957	    0.012643	    0.015272	    0.027914	    0.008134	   -0.018553	   -0.010419	   -0.014656	   -0.006356	   -0.021012	    0.021590	    0.025999	    0.047589	    0.050357	    0.038676	    0.089033	    0.025002	    0.050105	    0.075107	    0.012949	   -0.015540	   -0.002591	    0.032912	   -0.041873	   -0.008961	    0.039285	    0.047132	    0.086417	    0.018577	   -0.009955	    0.008622	    0.008276	    0.002261	    0.010537	   -0.005525	    0.014667	    0.009142	    0.010818	    0.018268	    0.029087	   -0.001695	   -0.006295	   -0.007990	    0.070207	    0.086293	    0.156500
     9.375	0	0	    0	   -0.003534	   -0.027339	   -0.030873	    0.009378	    0.019666	    0.029045	    0.000270	    0.032361	    0.032631	    0.053584	    0.064699	    0.118283	    0.065968	    0.069147	    0.135115	    0.033416	    0.041339	    0.074755	   -0.015873	   -0.025582	   -0.041455	    0.009811	    0.014846	    0.024657	    0.010000	   -0.022175	   -0.012175	   -0.015457	   -0.006506	   -0.021963	    0.021664	    0.026260	    0.047924	    0.050982	    0.038923	    0.089905	    0.024985	    0.050289	    0.075274	    0.012292	   -0.013642	   -0.001350	    0.033497	   -0.044128	   -0.010631	    0.040368	    0.044882	    0.085250	    0.018319	   -0.010871	    0.007448	    0.008405	    0.001260	    0.009665	   -0.005609	    0.014916	    0.009308	    0.011018	    0.018032	    0.029050	   -0.001202	   -0.007044	   -0.008246	    0.073162	    0.081966	    0.155128
     9.450	0	0	    0	   -0.007098	   -0.017459	   -0.024557	    0.007166	    0.021909	    0.029075	    0.000138	    0.031934	    0.032073	    0.053532	    0.064549	    0.118081	    0.065539	    0.070296	    0.135834	    0.034529	    0.039364	    0.073894	   -0.008779	   -0.032129	   -0.040908	    0.013278	    0.015223	    0.028501	    0.011498	   -0.021723	   -0.010225	   -0.015735	   -0.006584	   -0.022320	    0.021569	    0.025995	    0.047564	    0.051169	    0.039240	    0.090409	    0.025325	    0.049898	    0.075223	    0.009898	   -0.010968	   -0.001069	    0.032562	   -0.039874	   -0.007312	    0.041048	    0.044714	    0.085762	    0.018250	   -0.011328	    0.006922	    0.007111	    0.002085	    0.009197	   -0.005393	    0.014757	    0.009364	    0.010868	    0.018007	    0.028875	    0.000307	   -0.008495	   -0.008188	    0.075758	    0.081388	    0.157146
     9.525	0	0	    0	   -0.012471	   -0.012460	   -0.024931	    0.008187	    0.020742	    0.028929	   -0.001914	    0.032019	    0.030104	    0.052811	    0.064943	    0.117754	    0.063897	    0.071470	    0.135367	    0.033601	    0.037966	    0.071567	   -0.023192	   -0.018504	   -0.041696	    0.007833	    0.016850	    0.024683	    0.005933	   -0.017619	   -0.011686	   -0.016930	   -0.006309	   -0.023239	    0.019885	    0.026611	    0.046496	    0.051026	    0.039416	    0.090442	    0.024362	    0.050488	    0.074850	    0.009811	   -0.013978	   -0.004167	    0.015682	   -0.029203	   -0.013521	    0.037748	    0.046419	    0.084167	    0.016598	   -0.010796	    0.005801	    0.006354	    0.002173	    0.008528	   -0.006840	    0.015344	    0.008504	    0.009463	    0.018582	    0.028045	   -0.003291	   -0.006227	   -0.009518	    0.060851	    0.092596	    0.153447
     9.600	0	0	    0	   -0.016277	   -0.012412	   -0.028689	    0.007233	    0.019098	    0.026331	   -0.004132	    0.032858	    0.028726	    0.051194	    0.066080	    0.117273	    0.064136	    0.071177	    0.135312	    0.035005	    0.036768	    0.071773	   -0.012845	   -0.032558	   -0.045403	    0.005579	    0.016230	    0.021810	    0.006212	   -0.018924	   -0.012712	   -0.017734	   -0.006838	   -0.024572	    0.018886	    0.026543	    0.045428	    0.050141	    0.039937	    0.090078	    0.024440	    0.049669	    0.074108	    0.014387	   -0.018909	   -0.004522	    0.024168	   -0.038715	   -0.014548	    0.039988	    0.043508	    0.083495	    0.015171	   -0.011008	    0.004163	    0.005803	    0.001613	    0.007416	   -0.007692	    0.015039	    0.007347	    0.008519	    0.018422	    0.026942	   -0.002566	   -0.007920	   -0.010486	    0.066749	    0.087171	    0.153921
     9.675	0	0	    0	   -0.011784	   -0.019871	   -0.031655	    0.006790	    0.018924	    0.025714	   -0.003932	    0.030358	    0.026426	    0.050842	    0.064697	    0.115539	    0.065180	    0.070142	    0.135321	    0.033275	    0.038097	    0.071371	   -0.013064	   -0.031442	   -0.044507	    0.007007	    0.014415	    0.021422	    0.005767	   -0.019191	   -0.013423	   -0.018477	   -0.007361	   -0.025838	    0.017571	    0.026326	    0.043897	    0.049560	    0.039981	    0.089541	    0.023049	    0.050129	    0.073178	    0.010473	   -0.017616	   -0.007143	    0.020196	   -0.035464	   -0.015267	    0.037959	    0.044304	    0.082263	    0.013627	   -0.011588	    0.002039	    0.003410	    0.002048	    0.005458	   -0.009360	    0.015347	    0.005987	    0.007130	    0.018146	    0.025277	   -0.003559	   -0.008537	   -0.012096	    0.057279	    0.087206	    0.144485
     9.750	0	0	    0	   -0.010905	   -0.018016	   -0.028921	    0.005097	    0.019388	    0.024485	   -0.007223	    0.031607	    0.024383	    0.050431	    0.063736	    0.114167	    0.063601	    0.070950	    0.134551	    0.029437	    0.040545	    0.069981	   -0.021870	   -0.023389	   -0.045259	    0.008428	    0.014591	    0.023019	    0.003729	   -0.017411	   -0.013682	   -0.020299	   -0.007123	   -0.027422	    0.016393	    0.026175	    0.042568	    0.049072	    0.039669	    0.088740	    0.021208	    0.050918	    0.072126	    0.007387	   -0.015143	   -0.007756	    0.016152	   -0.031143	   -0.014991	    0.036218	    0.045716	    0.081934	    0.011675	   -0.011448	    0.000227	    0.001667	    0.001870	    0.003537	   -0.011054	    0.015325	    0.004271	    0.005131	    0.018751	    0.023883	   -0.006059	   -0.007008	   -0.013067	    0.057883	    0.088261	    0.146143
     9.825	0	0	    0	   -0.014322	   -0.013689	   -0.028011	    0.003300	    0.020143	    0.023443	   -0.008766	    0.031441	    0.022675	    0.049275	    0.063403	    0.112679	    0.063404	    0.070599	    0.134002	    0.029459	    0.039709	    0.069168	   -0.019406	   -0.028321	   -0.047728	    0.006690	    0.013086	    0.019776	    0.002572	   -0.017018	   -0.014446	   -0.022114	   -0.007182	   -0.029295	    0.015014	    0.025906	    0.040920	    0.047819	    0.039624	    0.087443	    0.020520	    0.050388	    0.070908	    0.008665	   -0.016184	   -0.007520	    0.018970	   -0.036244	   -0.017274	    0.036892	    0.045433	    0.082324	    0.009907	   -0.011953	   -0.002046	    0.000550	    0.001046	    0.001596	   -0.012730	    0.015103	    0.002374	    0.003886	    0.018130	    0.022016	   -0.006732	   -0.008046	   -0.014778	    0.062700	    0.082400	    0.145100
     9.900	0	0	    0	   -0.013262	   -0.018003	   -0.031264	    0.000272	    0.020901	    0.021173	   -0.010072	    0.031011	    0.020939	    0.048589	    0.063113	    0.111701	    0.062565	    0.070085	    0.132650	    0.026322	    0.043004	    0.069326	   -0.026823	   -0.020340	   -0.047162	    0.003333	    0.014131	    0.017465	    0.000101	   -0.015786	   -0.015685	   -0.023885	   -0.006511	   -0.030396	    0.013393	    0.026258	    0.039651	    0.046699	    0.039458	    0.086157	    0.018125	    0.051642	    0.069766	    0.005510	   -0.012007	   -0.006496	    0.022392	   -0.038606	   -0.016214	    0.034759	    0.047619	    0.082378	    0.008118	   -0.011742	   -0.003624	   -0.000540	    0.000825	    0.000286	   -0.013998	    0.014840	    0.000842	    0.001607	    0.018784	    0.020391	   -0.009518	   -0.006159	   -0.015677	    0.057759	    0.086043	    0.143802
