 [File Information]      		 [Data Line]	36
Measured Date	2024/05/28 095034
ID		Version	11.0
Name	oceane_12	[HeaderType]	11.0/11.0
Comment	
[Measurement Info.]
Holder Location	       0
Block Design	Off     
Pre.Rest Time	       0
Task Time	       0
Pos.Rest Time	       0
Loop	       0
Averaging	       1
Total Points	     814
[.INF File]
Filename	Cognitive1.INF
[Condition-1]
HV Switching	OFF
 R1 ,R2 ,R3 ,R4 ,R5 ,R6 ,R7 ,R8 
 120.00, 70.00,120.00,100.00, 90.00, 70.00,120.00,120.00
 Gain(X1,X4,X16,X64)
 R1 ,R2 ,R3 ,R4 ,R5 ,R6 ,R7 ,R8 
 1,1,1,1,1,1,1,1
[Analysis Condition]
Smoothed Type	None            
Smoothed Points	       0
Smoothed Loop	       0
Baseline Method	None            
Baseline location	
[Text Info.]
Output Mode	Continious      	Task No.		Data Type	Hb      
Time Range	    0.00	   60.98	Averaing	1
(1,3)(5,3)(5,7)(2,7)(2,4)(6,4)(6,8)(1,1)(3,3)(5,5)(7,7)(2,2)(4,4)(6,6)(8,8)(3,1)(3,5)(7,5)(7,2)(4,2)(4,6)(8,6)
         	     	     	     	    ch- 1	    ch- 1	    ch- 1	    ch- 2	    ch- 2	    ch- 2	    ch- 3	    ch- 3	    ch- 3	    ch- 4	    ch- 4	    ch- 4	    ch- 5	    ch- 5	    ch- 5	    ch- 6	    ch- 6	    ch- 6	    ch- 7	    ch- 7	    ch- 7	    ch- 8	    ch- 8	    ch- 8	    ch- 9	    ch- 9	    ch- 9	    ch-10	    ch-10	    ch-10	    ch-11	    ch-11	    ch-11	    ch-12	    ch-12	    ch-12	    ch-13	    ch-13	    ch-13	    ch-14	    ch-14	    ch-14	    ch-15	    ch-15	    ch-15	    ch-16	    ch-16	    ch-16	    ch-17	    ch-17	    ch-17	    ch-18	    ch-18	    ch-18	    ch-19	    ch-19	    ch-19	    ch-20	    ch-20	    ch-20	    ch-21	    ch-21	    ch-21	    ch-22	    ch-22	    ch-22
Time(sec)	Task	Mark	Count	    oxyHb   	  deoxyHb	  totalHb	    oxyHb   	  deoxyHb	  totalHb	    oxyHb   	  deoxyHb	  totalHb	    oxyHb   	  deoxyHb	  totalHb	    oxyHb   	  deoxyHb	  totalHb	    oxyHb   	  deoxyHb	  totalHb	    oxyHb   	  deoxyHb	  totalHb	    oxyHb   	  deoxyHb	  totalHb	    oxyHb   	  deoxyHb	  totalHb	    oxyHb   	  deoxyHb	  totalHb	    oxyHb   	  deoxyHb	  totalHb	    oxyHb   	  deoxyHb	  totalHb	    oxyHb   	  deoxyHb	  totalHb	    oxyHb   	  deoxyHb	  totalHb	    oxyHb   	  deoxyHb	  totalHb	    oxyHb   	  deoxyHb	  totalHb	    oxyHb   	  deoxyHb	  totalHb	    oxyHb   	  deoxyHb	  totalHb	    oxyHb   	  deoxyHb	  totalHb	    oxyHb   	  deoxyHb	  totalHb	    oxyHb   	  deoxyHb	  totalHb	    oxyHb   	  deoxyHb	  totalHb
     0.000	0	0Z	    0	    0.000000	    0.000000	    0.000000	    0.000000	    0.000000	    0.000000	    0.000000	    0.000000	    0.000000	    0.000000	    0.000000	    0.000000	    0.000000	    0.000000	    0.000000	    0.000000	    0.000000	    0.000000	    0.000000	    0.000000	    0.000000	    0.000000	    0.000000	    0.000000	    0.000000	    0.000000	    0.000000	    0.000000	    0.000000	    0.000000	    0.000000	    0.000000	    0.000000	    0.000000	    0.000000	    0.000000	    0.000000	    0.000000	    0.000000	    0.000000	    0.000000	    0.000000	    0.000000	    0.000000	    0.000000	    0.000000	    0.000000	    0.000000	    0.000000	    0.000000	    0.000000	    0.000000	    0.000000	    0.000000	    0.000000	    0.000000	    0.000000	    0.000000	    0.000000	    0.000000	    0.000000	    0.000000	    0.000000	    0.000000	    0.000000	    0.000000
     0.075	0	0	    0	    0.004028	   -0.003852	    0.000175	   -0.003768	   -0.008880	   -0.012648	    0.025168	   -0.002681	    0.022486	    0.030999	    0.023988	    0.054987	   -0.003247	    0.006736	    0.003489	    0.011386	    0.011334	    0.022719	    0.019103	    0.015318	    0.034421	    0.036936	    0.029136	    0.066072	   -0.016403	   -0.007771	   -0.024174	   -0.009785	   -0.001877	   -0.011663	    0.017793	   -0.008959	    0.008834	   -0.002129	   -0.008227	   -0.010356	   -0.000370	    0.000697	    0.000326	    0.005630	   -0.000251	    0.005379	    0.059349	    0.019464	    0.078813	    0.014600	    0.016387	    0.030987	    0.000221	   -0.000260	   -0.000038	   -0.005668	   -0.004092	   -0.009760	    0.014044	    0.006010	    0.020054	    0.007841	   -0.001099	    0.006742	   -0.007461	   -0.005703	   -0.013164	    0.031299	    0.030038	    0.061337
     0.150	0	0	    0	    0.009357	   -0.000417	    0.008940	    0.000841	   -0.003074	   -0.002233	    0.063629	    0.049277	    0.112906	    0.059548	    0.100344	    0.159892	    0.011692	    0.046693	    0.058385	   -0.003038	    0.001601	   -0.001437	    0.049465	    0.058690	    0.108154	    0.037871	    0.039176	    0.077047	   -0.023167	   -0.024141	   -0.047308	   -0.023698	   -0.025385	   -0.049083	    0.041010	    0.036013	    0.077023	   -0.001014	    0.026657	    0.025643	   -0.019185	   -0.019962	   -0.039147	    0.027355	    0.020194	    0.047549	    0.057037	    0.034396	    0.091433	    0.018593	    0.037048	    0.055641	   -0.000287	   -0.005809	   -0.006096	   -0.008392	   -0.019899	   -0.028290	    0.017854	    0.008537	    0.026391	    0.007436	   -0.006490	    0.000947	   -0.012470	   -0.015734	   -0.028204	    0.054550	    0.079212	    0.133762
     0.225	0	0	    0	   -0.000921	    0.007087	    0.006166	    0.002297	    0.002642	    0.004938	    0.079744	    0.089616	    0.169360	    0.086929	    0.150468	    0.237397	    0.017500	    0.078525	    0.096025	   -0.003381	    0.008147	    0.004766	    0.052068	    0.089629	    0.141697	    0.038842	    0.045970	    0.084813	   -0.021845	   -0.024663	   -0.046509	   -0.023984	   -0.027982	   -0.051966	    0.053781	    0.061128	    0.114909	    0.005067	    0.053069	    0.058136	   -0.015855	   -0.034122	   -0.049977	    0.029578	    0.038302	    0.067881	    0.056540	    0.056560	    0.113099	    0.023227	    0.054139	    0.077367	   -0.000584	   -0.004039	   -0.004623	   -0.008334	   -0.025634	   -0.033968	    0.016413	    0.007335	    0.023748	    0.010385	   -0.011133	   -0.000749	   -0.007204	   -0.015417	   -0.022620	    0.063947	    0.107867	    0.171814
     0.300	0	0	    0	   -0.002041	    0.007916	    0.005874	    0.001536	    0.006543	    0.008079	    0.094097	    0.115517	    0.209613	    0.105667	    0.190471	    0.296139	    0.028666	    0.099915	    0.128581	   -0.001570	    0.013202	    0.011633	    0.051964	    0.099349	    0.151313	    0.036085	    0.051916	    0.088001	   -0.026974	   -0.024016	   -0.050990	   -0.023929	   -0.027990	   -0.051919	    0.063784	    0.080880	    0.144664	    0.015099	    0.069355	    0.084454	   -0.021260	   -0.035822	   -0.057082	    0.034797	    0.035429	    0.070226	    0.057692	    0.061978	    0.119671	    0.022255	    0.063110	    0.085366	   -0.002836	   -0.004412	   -0.007249	   -0.009257	   -0.027196	   -0.036454	    0.013214	    0.005527	    0.018741	    0.011043	   -0.011684	   -0.000641	   -0.008874	   -0.012898	   -0.021772	    0.072222	    0.122107	    0.194329
     0.375	0	0	    0	   -0.004549	    0.009283	    0.004734	    0.004391	    0.006847	    0.011238	    0.104520	    0.130431	    0.234951	    0.114328	    0.210278	    0.324607	    0.034557	    0.100394	    0.134952	    0.004454	    0.010514	    0.014968	    0.063741	    0.090071	    0.153812	    0.031370	    0.051521	    0.082891	   -0.027412	   -0.029957	   -0.057369	   -0.022945	   -0.028509	   -0.051454	    0.067718	    0.093293	    0.161011	    0.020502	    0.071274	    0.091776	   -0.019941	   -0.033147	   -0.053089	    0.035498	    0.037912	    0.073410	    0.061871	    0.060197	    0.122067	    0.023336	    0.064108	    0.087445	   -0.005576	   -0.005532	   -0.011108	   -0.011805	   -0.027596	   -0.039401	    0.010759	    0.003299	    0.014058	    0.011304	   -0.010853	    0.000451	   -0.007276	   -0.015076	   -0.022352	    0.075664	    0.133073	    0.208737
     0.450	0	0	    0	    0.003604	   -0.002179	    0.001425	    0.004183	    0.008038	    0.012221	    0.105590	    0.140274	    0.245864	    0.119363	    0.209374	    0.328737	    0.039921	    0.092956	    0.132878	    0.009200	    0.004590	    0.013790	    0.067598	    0.080428	    0.148027	    0.033320	    0.044211	    0.077532	   -0.029720	   -0.030249	   -0.059968	   -0.022769	   -0.027762	   -0.050532	    0.068812	    0.099510	    0.168322	    0.022442	    0.066828	    0.089270	   -0.020469	   -0.031575	   -0.052044	    0.033536	    0.038101	    0.071637	    0.058136	    0.060665	    0.118802	    0.020713	    0.066504	    0.087216	   -0.006011	   -0.007885	   -0.013896	   -0.013510	   -0.028570	   -0.042080	    0.007725	    0.002755	    0.010481	    0.010950	   -0.010169	    0.000781	   -0.008887	   -0.013298	   -0.022185	    0.067130	    0.137528	    0.204658
     0.525	0	0	    0	   -0.004527	    0.003280	   -0.001246	    0.001225	    0.011013	    0.012237	    0.103821	    0.145257	    0.249078	    0.122796	    0.211018	    0.333814	    0.037831	    0.097385	    0.135216	   -0.005072	    0.021983	    0.016911	    0.043582	    0.105529	    0.149111	    0.029776	    0.044608	    0.074384	   -0.033157	   -0.030411	   -0.063568	   -0.023024	   -0.027069	   -0.050092	    0.067276	    0.101198	    0.168474	    0.022937	    0.066349	    0.089285	   -0.019815	   -0.030345	   -0.050160	    0.029770	    0.040282	    0.070051	    0.054127	    0.062951	    0.117078	    0.017805	    0.066512	    0.084317	   -0.007977	   -0.008779	   -0.016756	   -0.016245	   -0.028354	   -0.044599	    0.005371	    0.002372	    0.007743	    0.010077	   -0.009614	    0.000463	   -0.012129	   -0.010768	   -0.022897	    0.071786	    0.133180	    0.204966
     0.600	0	0	    0	    0.000797	    0.003128	    0.003926	    0.008743	    0.005531	    0.014274	    0.112536	    0.142448	    0.254984	    0.122240	    0.221814	    0.344054	    0.042216	    0.099055	    0.141270	    0.012523	    0.006845	    0.019368	    0.065696	    0.090808	    0.156504	    0.034083	    0.044693	    0.078776	   -0.032638	   -0.034053	   -0.066691	   -0.020540	   -0.026514	   -0.047054	    0.071161	    0.100962	    0.172123	    0.026795	    0.069426	    0.096220	   -0.017615	   -0.029879	   -0.047494	    0.038149	    0.034041	    0.072190	    0.063299	    0.063066	    0.126365	    0.021291	    0.064078	    0.085369	   -0.004957	   -0.009653	   -0.014610	   -0.010995	   -0.030222	   -0.041217	    0.008295	    0.000606	    0.008901	    0.012464	   -0.010477	    0.001986	   -0.006139	   -0.014611	   -0.020750	    0.080844	    0.131638	    0.212481
     0.675	0	0	    0	    0.003004	    0.005168	    0.008172	    0.012835	    0.008918	    0.021752	    0.119067	    0.146611	    0.265678	    0.131008	    0.217106	    0.348114	    0.043972	    0.095757	    0.139729	    0.009439	    0.013275	    0.022714	    0.066282	    0.094764	    0.161045	    0.037250	    0.044815	    0.082065	   -0.030838	   -0.031245	   -0.062083	   -0.015794	   -0.025456	   -0.041250	    0.075319	    0.103795	    0.179113	    0.029555	    0.066503	    0.096058	   -0.013935	   -0.027398	   -0.041332	    0.042045	    0.035315	    0.077360	    0.068659	    0.060572	    0.129231	    0.023524	    0.068337	    0.091861	    0.000573	   -0.006969	   -0.006396	   -0.007018	   -0.028729	   -0.035747	    0.012858	    0.001213	    0.014071	    0.019269	   -0.008109	    0.011160	   -0.001499	   -0.011992	   -0.013491	    0.085985	    0.131669	    0.217654
     0.750	0	0	    0	    0.000797	    0.003128	    0.003926	    0.013200	    0.011435	    0.024635	    0.123305	    0.152534	    0.275839	    0.135882	    0.214765	    0.350647	    0.045193	    0.092949	    0.138141	    0.010705	    0.013242	    0.023948	    0.064471	    0.094665	    0.159136	    0.034582	    0.044544	    0.079126	   -0.028020	   -0.033529	   -0.061549	   -0.012869	   -0.025145	   -0.038014	    0.079498	    0.107978	    0.187476	    0.033778	    0.063175	    0.096953	   -0.010619	   -0.025626	   -0.036245	    0.040826	    0.038257	    0.079082	    0.069968	    0.058667	    0.128635	    0.025941	    0.066944	    0.092885	    0.002797	   -0.006294	   -0.003497	   -0.004802	   -0.028815	   -0.033617	    0.014929	    0.001970	    0.016898	    0.024158	   -0.007212	    0.016946	    0.000829	   -0.010320	   -0.009491	    0.087276	    0.134426	    0.221702
     0.825	0	0	    0	   -0.003004	    0.008476	    0.005471	    0.015786	    0.011536	    0.027323	    0.125824	    0.155292	    0.281116	    0.135583	    0.217294	    0.352877	    0.046604	    0.089286	    0.135890	    0.011952	    0.014347	    0.026299	    0.066739	    0.091216	    0.157955	    0.033948	    0.043896	    0.077844	   -0.026219	   -0.034189	   -0.060407	   -0.010031	   -0.024403	   -0.034435	    0.079615	    0.110392	    0.190006	    0.034382	    0.060264	    0.094646	   -0.009239	   -0.023955	   -0.033194	    0.038655	    0.042628	    0.081283	    0.069616	    0.059379	    0.128996	    0.027469	    0.066774	    0.094243	    0.003897	   -0.005569	   -0.001672	   -0.005146	   -0.027337	   -0.032483	    0.015304	    0.002233	    0.017537	    0.025600	   -0.005540	    0.020060	    0.002879	   -0.011607	   -0.008728	    0.079772	    0.145157	    0.224929
     0.900	0	0	    0	    0.001326	    0.005427	    0.006752	    0.016122	    0.013060	    0.029182	    0.125691	    0.157318	    0.283009	    0.136144	    0.208908	    0.345052	    0.044769	    0.082637	    0.127405	    0.006157	    0.018937	    0.025094	    0.060292	    0.096995	    0.157287	    0.035432	    0.041537	    0.076968	   -0.029482	   -0.032291	   -0.061773	   -0.008519	   -0.023251	   -0.031770	    0.079295	    0.110364	    0.189659	    0.034149	    0.054182	    0.088330	   -0.010042	   -0.022664	   -0.032705	    0.038579	    0.041361	    0.079940	    0.067837	    0.059408	    0.127245	    0.027058	    0.066707	    0.093764	    0.004141	   -0.005742	   -0.001602	   -0.005061	   -0.027639	   -0.032701	    0.014587	    0.002147	    0.016734	    0.026096	   -0.005619	    0.020478	    0.001421	   -0.011691	   -0.010271	    0.087921	    0.133752	    0.221673
     0.975	0	0	    0	    0.000104	    0.003398	    0.003502	    0.017974	    0.010849	    0.028823	    0.125399	    0.156725	    0.282124	    0.128962	    0.190309	    0.319271	    0.034463	    0.059838	    0.094302	    0.008159	    0.014153	    0.022312	    0.060449	    0.095381	    0.155830	    0.036904	    0.039915	    0.076820	   -0.028381	   -0.033614	   -0.061995	   -0.005755	   -0.022269	   -0.028024	    0.079075	    0.108293	    0.187368	    0.027456	    0.033569	    0.061025	   -0.009313	   -0.024298	   -0.033611	    0.044751	    0.037352	    0.082104	    0.068296	    0.057728	    0.126024	    0.028925	    0.065792	    0.094717	    0.004859	   -0.005811	   -0.000952	   -0.004387	   -0.026721	   -0.031108	    0.014115	    0.002141	    0.016255	    0.026373	   -0.004768	    0.021604	    0.003342	   -0.013843	   -0.010501	    0.084260	    0.138444	    0.222704
     1.050	0	0	    0	    0.007654	   -0.004367	    0.003287	    0.016724	    0.010754	    0.027478	    0.126297	    0.154488	    0.280785	    0.131284	    0.185556	    0.316840	    0.040106	    0.050614	    0.090720	    0.013191	    0.009021	    0.022212	    0.069172	    0.086478	    0.155650	    0.038188	    0.039982	    0.078170	   -0.028319	   -0.034532	   -0.062851	   -0.005085	   -0.020670	   -0.025756	    0.078546	    0.107131	    0.185677	    0.028534	    0.028513	    0.057047	   -0.009836	   -0.024724	   -0.034559	    0.040237	    0.040962	    0.081199	    0.065287	    0.060430	    0.125718	    0.027648	    0.067202	    0.094850	    0.003796	   -0.004684	   -0.000888	   -0.005336	   -0.026040	   -0.031375	    0.014253	    0.002210	    0.016463	    0.026308	   -0.004298	    0.022010	    0.002119	   -0.011867	   -0.009749	    0.087825	    0.135267	    0.223091
     1.125	0	0	    0	   -0.001082	    0.008515	    0.007433	    0.015366	    0.013008	    0.028374	    0.126102	    0.156664	    0.282766	    0.129116	    0.187847	    0.316963	    0.038483	    0.051911	    0.090394	    0.007566	    0.016757	    0.024323	    0.057967	    0.102144	    0.160111	    0.033530	    0.040577	    0.074108	   -0.029067	   -0.034974	   -0.064041	   -0.005767	   -0.020618	   -0.026385	    0.078020	    0.107403	    0.185424	    0.027793	    0.028617	    0.056410	   -0.009340	   -0.026026	   -0.035366	    0.038778	    0.040825	    0.079603	    0.075330	    0.052262	    0.127592	    0.031060	    0.065658	    0.096718	    0.003268	   -0.004969	   -0.001701	   -0.006555	   -0.026411	   -0.032966	    0.013774	    0.002589	    0.016363	    0.026118	   -0.003945	    0.022173	    0.002214	   -0.011353	   -0.009138	    0.097333	    0.130754	    0.228087
     1.200	0	0	    0	    0.001613	    0.005133	    0.006745	    0.014075	    0.014150	    0.028226	    0.123611	    0.156968	    0.280580	    0.133821	    0.177620	    0.311442	    0.035881	    0.049205	    0.085086	    0.010435	    0.015465	    0.025900	    0.052496	    0.107742	    0.160238	    0.033628	    0.039975	    0.073603	   -0.031714	   -0.033564	   -0.065279	   -0.004925	   -0.020189	   -0.025113	    0.075222	    0.107206	    0.182428	    0.026407	    0.025419	    0.051826	   -0.010717	   -0.025399	   -0.036115	    0.043089	    0.038859	    0.081949	    0.073626	    0.052041	    0.125667	    0.027273	    0.069334	    0.096607	    0.000998	   -0.003997	   -0.002999	   -0.008159	   -0.026240	   -0.034399	    0.011524	    0.002841	    0.014364	    0.024123	   -0.002678	    0.021445	    0.000600	   -0.009957	   -0.009357	    0.083341	    0.143989	    0.227330
     1.275	0	0	    0	   -0.007418	    0.010014	    0.002596	    0.012594	    0.012758	    0.025352	    0.121398	    0.156283	    0.277681	    0.126610	    0.182503	    0.309113	    0.035542	    0.046473	    0.082015	    0.004749	    0.016898	    0.021647	    0.058880	    0.094948	    0.153829	    0.028505	    0.042876	    0.071381	   -0.033558	   -0.033846	   -0.067404	   -0.004994	   -0.019037	   -0.024031	    0.074193	    0.105965	    0.180158	    0.025286	    0.024198	    0.049484	   -0.011686	   -0.025824	   -0.037510	    0.036632	    0.042905	    0.079537	    0.062985	    0.059178	    0.122164	    0.025973	    0.068752	    0.094725	   -0.001489	   -0.003582	   -0.005071	   -0.010358	   -0.025361	   -0.035718	    0.009719	    0.002911	    0.012630	    0.022506	   -0.002583	    0.019923	   -0.000732	   -0.010367	   -0.011099	    0.086320	    0.137278	    0.223598
     1.350	0	0	    0	    0.003331	   -0.002462	    0.000869	    0.012557	    0.011287	    0.023844	    0.121027	    0.153994	    0.275021	    0.127591	    0.181484	    0.309075	    0.034624	    0.046343	    0.080967	    0.007127	    0.015439	    0.022565	    0.061664	    0.095137	    0.156801	    0.031887	    0.037887	    0.069774	   -0.037330	   -0.032074	   -0.069403	   -0.006824	   -0.018823	   -0.025647	    0.072804	    0.105393	    0.178197	    0.024772	    0.024130	    0.048902	   -0.013888	   -0.025522	   -0.039410	    0.036311	    0.043034	    0.079344	    0.067407	    0.055464	    0.122872	    0.026009	    0.066983	    0.092993	   -0.004015	   -0.003446	   -0.007461	   -0.012415	   -0.025573	   -0.037988	    0.008735	    0.002540	    0.011275	    0.022116	   -0.002751	    0.019365	   -0.000816	   -0.011889	   -0.012704	    0.080650	    0.142054	    0.222703
     1.425	0	0	    0	   -0.009901	    0.014879	    0.004978	    0.009232	    0.011995	    0.021227	    0.120767	    0.152606	    0.273373	    0.136023	    0.184334	    0.320356	    0.036380	    0.047818	    0.084199	    0.009073	    0.014151	    0.023224	    0.052813	    0.100073	    0.152886	    0.026044	    0.043379	    0.069423	   -0.040780	   -0.029869	   -0.070650	   -0.008975	   -0.017950	   -0.026924	    0.072748	    0.103372	    0.176120	    0.024786	    0.021420	    0.046206	   -0.013220	   -0.026784	   -0.040004	    0.036546	    0.040205	    0.076751	    0.063831	    0.058271	    0.122102	    0.023762	    0.068584	    0.092346	   -0.006861	   -0.003305	   -0.010165	   -0.015038	   -0.025924	   -0.040963	    0.007969	    0.001955	    0.009925	    0.019916	   -0.002342	    0.017574	   -0.003271	   -0.011454	   -0.014725	    0.078074	    0.137305	    0.215379
     1.500	0	0	    0	    0.007234	    0.000977	    0.008211	    0.009682	    0.013920	    0.023603	    0.135782	    0.164814	    0.300596	    0.140270	    0.201533	    0.341803	    0.040117	    0.052105	    0.092222	    0.000716	    0.020397	    0.021113	    0.048367	    0.108045	    0.156412	    0.034399	    0.039718	    0.074117	   -0.044872	   -0.035500	   -0.080372	   -0.011363	   -0.021910	   -0.033273	    0.084115	    0.115849	    0.199964	    0.026545	    0.021467	    0.048012	   -0.012164	   -0.024814	   -0.036978	    0.033539	    0.041713	    0.075252	    0.070050	    0.058746	    0.128796	    0.023305	    0.067627	    0.090932	   -0.007784	   -0.006786	   -0.014570	   -0.012234	   -0.028816	   -0.041050	    0.008044	    0.001225	    0.009269	    0.020368	   -0.003116	    0.017252	   -0.005026	   -0.012601	   -0.017627	    0.084691	    0.137775	    0.222467
     1.575	0	0	    0	   -0.001324	    0.007058	    0.005734	    0.018240	    0.012538	    0.030778	    0.136724	    0.172729	    0.309453	    0.144030	    0.197491	    0.341521	    0.041504	    0.050732	    0.092236	    0.010196	    0.019569	    0.029765	    0.065892	    0.093442	    0.159334	    0.036449	    0.039527	    0.075976	   -0.038611	   -0.039211	   -0.077821	   -0.005714	   -0.020375	   -0.026088	    0.083646	    0.119790	    0.203436	    0.028861	    0.021945	    0.050807	   -0.008499	   -0.021998	   -0.030496	    0.040163	    0.043018	    0.083181	    0.072271	    0.058426	    0.130698	    0.031189	    0.065580	    0.096770	    0.000303	   -0.006382	   -0.006079	   -0.007621	   -0.027315	   -0.034936	    0.011045	    0.000588	    0.011633	    0.025709	   -0.003046	    0.022662	    0.003379	   -0.011064	   -0.007685	    0.086513	    0.139033	    0.225546
     1.650	0	0	    0	    0.001866	    0.006582	    0.008448	    0.018733	    0.015905	    0.034638	    0.139827	    0.172616	    0.312443	    0.144078	    0.203170	    0.347248	    0.042475	    0.052731	    0.095206	    0.007546	    0.024048	    0.031594	    0.059018	    0.100897	    0.159914	    0.040724	    0.039443	    0.080166	   -0.036263	   -0.036863	   -0.073126	   -0.003790	   -0.018985	   -0.022775	    0.086470	    0.118888	    0.205357	    0.030580	    0.022357	    0.052937	   -0.007108	   -0.021135	   -0.028242	    0.043779	    0.043371	    0.087150	    0.078604	    0.057705	    0.136309	    0.033053	    0.066706	    0.099759	    0.002533	   -0.004206	   -0.001672	   -0.005169	   -0.026746	   -0.031915	    0.013721	    0.001036	    0.014757	    0.028927	   -0.002451	    0.026476	    0.005420	   -0.008288	   -0.002867	    0.094110	    0.139648	    0.233758
     1.725	0	0	    0	    0.011893	   -0.004341	    0.007553	    0.020156	    0.015612	    0.035768	    0.141155	    0.174061	    0.315217	    0.150478	    0.198216	    0.348694	    0.044558	    0.050284	    0.094842	    0.012241	    0.020500	    0.032741	    0.071010	    0.091450	    0.162460	    0.040995	    0.035949	    0.076944	   -0.036540	   -0.035962	   -0.072502	   -0.002308	   -0.018554	   -0.020861	    0.086108	    0.120186	    0.206294	    0.031057	    0.022455	    0.053512	   -0.005843	   -0.020647	   -0.026490	    0.043905	    0.043784	    0.087689	    0.075958	    0.059830	    0.135788	    0.032521	    0.069593	    0.102114	    0.002621	   -0.002518	    0.000102	   -0.004808	   -0.025538	   -0.030346	    0.014016	    0.001548	    0.015564	    0.030322	   -0.001099	    0.029223	    0.007385	   -0.008528	   -0.001144	    0.096304	    0.138692	    0.234997
     1.800	0	0	    0	   -0.009767	    0.019554	    0.009787	    0.016941	    0.018860	    0.035801	    0.140342	    0.179440	    0.319782	    0.149341	    0.205238	    0.354578	    0.039846	    0.057587	    0.097433	    0.004394	    0.030303	    0.034697	    0.051921	    0.115261	    0.167183	    0.033624	    0.045032	    0.078656	   -0.036487	   -0.037311	   -0.073798	   -0.003649	   -0.017599	   -0.021248	    0.087269	    0.120916	    0.208185	    0.030529	    0.023817	    0.054346	   -0.005959	   -0.020221	   -0.026180	    0.037223	    0.048667	    0.085890	    0.075841	    0.062560	    0.138402	    0.032731	    0.068862	    0.101592	    0.001890	   -0.003208	   -0.001318	   -0.005242	   -0.025784	   -0.031026	    0.013837	    0.001855	    0.015693	    0.030817	   -0.001851	    0.028966	    0.006000	   -0.008836	   -0.002835	    0.095146	    0.138730	    0.233875
     1.875	0	0	    0	   -0.004537	    0.015354	    0.010817	    0.018635	    0.017463	    0.036098	    0.144067	    0.179452	    0.323519	    0.147589	    0.209168	    0.356758	    0.039448	    0.060202	    0.099651	    0.011372	    0.024285	    0.035657	    0.058618	    0.106230	    0.164847	    0.033757	    0.045347	    0.079104	   -0.039152	   -0.036228	   -0.075380	   -0.002646	   -0.018344	   -0.020990	    0.087631	    0.122675	    0.210306	    0.030240	    0.024193	    0.054433	   -0.005637	   -0.019359	   -0.024996	    0.041152	    0.044080	    0.085232	    0.076633	    0.060843	    0.137476	    0.031510	    0.070778	    0.102288	    0.001414	   -0.002717	   -0.001303	   -0.005356	   -0.025446	   -0.030802	    0.013518	    0.001968	    0.015486	    0.030376	   -0.000615	    0.029760	    0.005621	   -0.007761	   -0.002140	    0.095093	    0.141628	    0.236721
     1.950	0	0	    0	   -0.001343	    0.007644	    0.006301	    0.018571	    0.016356	    0.034927	    0.146610	    0.180239	    0.326849	    0.149370	    0.211094	    0.360464	    0.044140	    0.055406	    0.099546	    0.002533	    0.031825	    0.034359	    0.061836	    0.099767	    0.161603	    0.033965	    0.042429	    0.076394	   -0.040649	   -0.037581	   -0.078229	   -0.003521	   -0.018082	   -0.021604	    0.086923	    0.123924	    0.210847	    0.030221	    0.024253	    0.054474	   -0.005521	   -0.018476	   -0.023997	    0.039839	    0.042037	    0.081876	    0.068422	    0.063913	    0.132335	    0.029977	    0.070872	    0.100849	    0.000567	   -0.002459	   -0.001891	   -0.006498	   -0.025377	   -0.031875	    0.012563	    0.001890	    0.014453	    0.030946	   -0.000944	    0.030002	    0.006632	   -0.008892	   -0.002260	    0.085609	    0.148416	    0.234025
     2.025	0	0	    0	   -0.012815	    0.016791	    0.003976	    0.017092	    0.016039	    0.033131	    0.146274	    0.178501	    0.324775	    0.149341	    0.210393	    0.359734	    0.039702	    0.061216	    0.100918	    0.009516	    0.024272	    0.033788	    0.055494	    0.104630	    0.160124	    0.034181	    0.043600	    0.077782	   -0.042179	   -0.035957	   -0.078136	   -0.004273	   -0.017975	   -0.022248	    0.086294	    0.124084	    0.210378	    0.029375	    0.024739	    0.054114	   -0.005549	   -0.017583	   -0.023131	    0.038778	    0.040825	    0.079603	    0.072140	    0.065464	    0.137604	    0.032106	    0.069578	    0.101684	    0.000014	   -0.002477	   -0.002463	   -0.007857	   -0.025093	   -0.032950	    0.011100	    0.001931	    0.013031	    0.030392	   -0.001339	    0.029053	    0.006919	   -0.008536	   -0.001616	    0.095093	    0.144096	    0.239189
     2.100	0	0	    0	   -0.006901	    0.015287	    0.008385	    0.016992	    0.017097	    0.034089	    0.146356	    0.179264	    0.325620	    0.152349	    0.208563	    0.360913	    0.043286	    0.058799	    0.102085	    0.007868	    0.027108	    0.034976	    0.061299	    0.101062	    0.162361	    0.034858	    0.044436	    0.079295	   -0.043163	   -0.034992	   -0.078155	   -0.005364	   -0.017865	   -0.023230	    0.085493	    0.124178	    0.209670	    0.028521	    0.024664	    0.053186	   -0.006101	   -0.016934	   -0.023035	    0.039469	    0.040813	    0.080282	    0.078564	    0.058785	    0.137349	    0.030628	    0.071428	    0.102055	   -0.001632	   -0.002170	   -0.003802	   -0.009661	   -0.025282	   -0.034944	    0.009572	    0.001945	    0.011517	    0.028212	   -0.000050	    0.028162	    0.005690	   -0.007601	   -0.001910	    0.095154	    0.142971	    0.238124
     2.175	0	0	    0	   -0.006337	    0.009787	    0.003450	    0.016276	    0.015843	    0.032118	    0.143640	    0.180748	    0.324388	    0.148210	    0.208871	    0.357081	    0.042056	    0.057278	    0.099334	    0.010932	    0.022927	    0.033859	    0.059385	    0.098599	    0.157984	    0.033599	    0.042892	    0.076491	   -0.039971	   -0.039348	   -0.079319	   -0.005936	   -0.018512	   -0.024448	    0.084260	    0.124442	    0.208702	    0.027531	    0.024911	    0.052442	   -0.006014	   -0.017228	   -0.023242	    0.033981	    0.043434	    0.077415	    0.073502	    0.062452	    0.135954	    0.030224	    0.071175	    0.101399	   -0.003016	   -0.002465	   -0.005481	   -0.011707	   -0.025061	   -0.036767	    0.006935	    0.002412	    0.009347	    0.027116	   -0.000377	    0.026739	    0.005186	   -0.008152	   -0.002966	    0.091596	    0.145336	    0.236932
     2.250	0	0	    0	   -0.004016	    0.003291	   -0.000725	    0.013651	    0.018016	    0.031667	    0.139223	    0.176941	    0.316164	    0.153984	    0.200835	    0.354818	    0.042664	    0.054589	    0.097253	    0.006026	    0.027084	    0.033110	    0.061137	    0.092168	    0.153305	    0.033820	    0.038298	    0.072118	   -0.042036	   -0.035360	   -0.077396	   -0.006208	   -0.017023	   -0.023231	    0.082470	    0.122574	    0.205044	    0.025945	    0.024285	    0.050230	   -0.006644	   -0.017534	   -0.024178	    0.033463	    0.041554	    0.075017	    0.073311	    0.057660	    0.130971	    0.028835	    0.069258	    0.098092	   -0.004466	   -0.002809	   -0.007275	   -0.014915	   -0.024267	   -0.039183	    0.004696	    0.001789	    0.006484	    0.024489	   -0.000826	    0.023663	    0.003656	   -0.008217	   -0.004561	    0.087690	    0.140983	    0.228673
     2.325	0	0	    0	   -0.009075	    0.010271	    0.001196	    0.012901	    0.015571	    0.028472	    0.140663	    0.177785	    0.318448	    0.146911	    0.210520	    0.357431	    0.037737	    0.059677	    0.097414	    0.004365	    0.026095	    0.030460	    0.055576	    0.099626	    0.155201	    0.029121	    0.040198	    0.069319	   -0.044102	   -0.035644	   -0.079746	   -0.008840	   -0.017471	   -0.026311	    0.081718	    0.123534	    0.205253	    0.024890	    0.024180	    0.049070	   -0.009584	   -0.016333	   -0.025917	    0.032828	    0.038197	    0.071025	    0.067793	    0.061842	    0.129636	    0.026661	    0.068138	    0.094798	   -0.007568	   -0.002222	   -0.009790	   -0.016330	   -0.024725	   -0.041055	    0.003744	    0.001803	    0.005546	    0.023513	   -0.001007	    0.022506	    0.001388	   -0.008139	   -0.006751	    0.081394	    0.148059	    0.229453
     2.400	0	0	    0	   -0.011953	    0.008112	   -0.003840	    0.009997	    0.015914	    0.025911	    0.136338	    0.179304	    0.315642	    0.146032	    0.207715	    0.353747	    0.036555	    0.056421	    0.092975	    0.004592	    0.023965	    0.028557	    0.053052	    0.094525	    0.147578	    0.031922	    0.038792	    0.070714	   -0.044210	   -0.037773	   -0.081983	   -0.008229	   -0.017551	   -0.025780	    0.079909	    0.122581	    0.202490	    0.024154	    0.022618	    0.046772	   -0.008678	   -0.017066	   -0.025744	    0.035134	    0.035626	    0.070760	    0.066529	    0.061312	    0.127841	    0.026996	    0.066888	    0.093884	   -0.008858	   -0.003113	   -0.011971	   -0.018300	   -0.024167	   -0.042467	    0.000928	    0.001917	    0.002845	    0.021840	   -0.000387	    0.021453	    0.000982	   -0.008630	   -0.007649	    0.082963	    0.144225	    0.227188
     2.475	0	0	    0	   -0.016636	    0.018071	    0.001435	    0.012226	    0.016306	    0.028532	    0.135935	    0.177673	    0.313607	    0.144331	    0.210598	    0.354929	    0.036192	    0.059344	    0.095536	    0.002865	    0.027589	    0.030454	    0.058363	    0.095564	    0.153927	    0.037224	    0.039993	    0.077217	   -0.041464	   -0.037017	   -0.078481	   -0.005897	   -0.016820	   -0.022717	    0.081416	    0.121250	    0.202666	    0.027255	    0.022799	    0.050054	   -0.008913	   -0.017338	   -0.026251	    0.034860	    0.040352	    0.075212	    0.082037	    0.057002	    0.139039	    0.027623	    0.068741	    0.096365	   -0.005079	   -0.003527	   -0.008606	   -0.013652	   -0.024444	   -0.038096	    0.003870	    0.000469	    0.004339	    0.023042	   -0.001374	    0.021669	    0.003726	   -0.008059	   -0.004333	    0.091657	    0.144883	    0.236540
     2.550	0	0	    0	   -0.023506	    0.015090	   -0.008416	    0.016514	    0.014705	    0.031219	    0.132791	    0.175423	    0.308214	    0.128154	    0.194968	    0.323122	    0.030548	    0.045780	    0.076327	    0.003456	    0.027990	    0.031446	    0.055777	    0.096354	    0.152131	    0.034006	    0.037588	    0.071594	   -0.035469	   -0.037327	   -0.072796	    0.000163	   -0.015740	   -0.015577	    0.077977	    0.121404	    0.199381	    0.032707	    0.016034	    0.048741	   -0.006235	   -0.016942	   -0.023177	    0.037201	    0.041382	    0.078583	    0.084369	    0.054681	    0.139050	    0.033681	    0.066098	    0.099779	    0.000324	   -0.001755	   -0.001431	   -0.008619	   -0.022466	   -0.031085	    0.004647	    0.002290	    0.006937	    0.027515	    0.000143	    0.027659	    0.007656	   -0.006579	    0.001077	    0.101993	    0.142945	    0.244938
     2.625	0	0	    0	   -0.017705	    0.000338	   -0.017367	    0.016878	    0.012621	    0.029499	    0.112962	    0.152556	    0.265518	    0.128131	    0.179022	    0.307153	    0.031378	    0.035298	    0.066676	   -0.005695	    0.011831	    0.006135	    0.035374	    0.090869	    0.126243	    0.036728	    0.033189	    0.069917	   -0.035096	   -0.035972	   -0.071068	    0.004235	   -0.011414	   -0.007179	    0.067544	    0.101611	    0.169155	    0.028666	    0.022333	    0.050999	   -0.011715	   -0.023628	   -0.035343	    0.028018	    0.036775	    0.064793	    0.081982	    0.051164	    0.133145	    0.033353	    0.064304	    0.097657	   -0.000684	    0.001838	    0.001155	   -0.007793	   -0.017333	   -0.025126	    0.002435	    0.000914	    0.003350	    0.025336	    0.003160	    0.028496	    0.005730	   -0.006545	   -0.000815	    0.104797	    0.138542	    0.243339
     2.700	0	0	    0	   -0.027021	    0.008240	   -0.018781	    0.011622	    0.012120	    0.023743	    0.116373	    0.146070	    0.262443	    0.125858	    0.181235	    0.307093	    0.025796	    0.039136	    0.064932	   -0.007816	    0.008271	    0.000454	    0.034262	    0.081459	    0.115721	    0.032712	    0.033764	    0.066476	   -0.040548	   -0.034374	   -0.074922	    0.001442	   -0.011261	   -0.009818	    0.067000	    0.100022	    0.167022	    0.028529	    0.020197	    0.048726	   -0.012308	   -0.027538	   -0.039845	    0.027428	    0.031282	    0.058710	    0.069733	    0.054854	    0.124587	    0.030951	    0.065050	    0.096001	   -0.001891	    0.001032	   -0.000859	   -0.010104	   -0.017305	   -0.027409	    0.004376	    0.001633	    0.006009	    0.024494	    0.002365	    0.026858	    0.004929	   -0.009123	   -0.004194	    0.096811	    0.135776	    0.232587
     2.775	0	0	    0	   -0.014552	   -0.016570	   -0.031122	    0.014267	    0.010604	    0.024870	    0.111252	    0.146873	    0.258125	    0.124597	    0.169049	    0.293646	    0.027803	    0.025620	    0.053423	   -0.007122	    0.005972	   -0.001150	    0.028477	    0.079769	    0.108246	    0.037474	    0.027510	    0.064984	   -0.040886	   -0.034015	   -0.074901	    0.002968	   -0.012253	   -0.009285	    0.064235	    0.099964	    0.164199	    0.028567	    0.020664	    0.049231	   -0.013107	   -0.027353	   -0.040460	    0.028089	    0.033394	    0.061482	    0.077581	    0.048166	    0.125746	    0.031202	    0.063664	    0.094866	   -0.002128	    0.001353	   -0.000776	   -0.009535	   -0.016954	   -0.026489	    0.000838	    0.002702	    0.003540	    0.023853	    0.002810	    0.026663	    0.003867	   -0.008484	   -0.004617	    0.091607	    0.133824	    0.225431
     2.850	0	0	    0	   -0.026956	   -0.020457	   -0.047413	    0.014914	    0.010749	    0.025663	    0.094172	    0.137270	    0.231442	    0.103484	    0.165708	    0.269192	    0.013939	    0.037237	    0.051175	   -0.008717	   -0.004443	   -0.013159	    0.009882	    0.072535	    0.082418	    0.039343	    0.024909	    0.064252	   -0.038473	   -0.038381	   -0.076855	    0.004050	   -0.009634	   -0.005584	    0.048943	    0.093065	    0.142008	    0.014060	    0.033508	    0.047568	   -0.017462	   -0.032578	   -0.050040	    0.026092	    0.028883	    0.054975	    0.072065	    0.045142	    0.117207	    0.031494	    0.059957	    0.091451	   -0.003740	    0.004051	    0.000311	   -0.011348	   -0.012443	   -0.023791	   -0.005548	    0.002268	   -0.003280	    0.021524	    0.003829	    0.025352	   -0.000397	   -0.007875	   -0.008273	    0.075265	    0.126115	    0.201380
     2.925	0	0	    0	   -0.037423	   -0.013590	   -0.051012	    0.006637	    0.008941	    0.015578	    0.097616	    0.117774	    0.215390	    0.116752	    0.168496	    0.285248	    0.011940	    0.035816	    0.047756	   -0.015528	    0.000172	   -0.015356	    0.017944	    0.045652	    0.063596	    0.033464	    0.027876	    0.061340	   -0.044201	   -0.037707	   -0.081908	   -0.003926	   -0.007806	   -0.011733	    0.053633	    0.081059	    0.134692	    0.009991	    0.022589	    0.032580	   -0.020747	   -0.026821	   -0.047568	    0.011994	    0.026270	    0.038264	    0.069988	    0.033231	    0.103220	    0.031305	    0.058936	    0.090241	   -0.007692	    0.005574	   -0.002118	   -0.014374	   -0.011596	   -0.025970	    0.000870	   -0.000640	    0.000230	    0.018322	    0.003257	    0.021579	   -0.004680	   -0.007215	   -0.011895	    0.079539	    0.109036	    0.188575
     3.000	0	0	    0	   -0.034090	   -0.014014	   -0.048104	    0.008589	    0.005962	    0.014551	    0.112761	    0.135935	    0.248696	    0.118399	    0.173890	    0.292289	    0.014185	    0.030045	    0.044230	   -0.013646	   -0.005282	   -0.018927	    0.025957	    0.060362	    0.086318	    0.033238	    0.027927	    0.061164	   -0.053907	   -0.044419	   -0.098326	   -0.007545	   -0.015983	   -0.023528	    0.059233	    0.094926	    0.154159	    0.014892	    0.014836	    0.029727	   -0.024826	   -0.035607	   -0.060433	    0.019286	    0.022607	    0.041893	    0.063890	    0.038287	    0.102177	    0.030275	    0.057871	    0.088146	   -0.009507	    0.001108	   -0.008398	   -0.014572	   -0.016356	   -0.030928	    0.001308	    0.002562	    0.003870	    0.022657	    0.001405	    0.024062	   -0.007598	   -0.014954	   -0.022551	    0.079441	    0.114676	    0.194118
     3.075	0	0	    0	   -0.045354	   -0.023316	   -0.068670	    0.010729	    0.009360	    0.020089	    0.086248	    0.141161	    0.227409	    0.057202	    0.172666	    0.229868	   -0.001783	    0.056512	    0.054729	   -0.005542	   -0.005183	   -0.010725	    0.006327	    0.063115	    0.069442	    0.034016	    0.024376	    0.058391	   -0.047996	   -0.044525	   -0.092520	   -0.000051	   -0.013372	   -0.013424	    0.031401	    0.094402	    0.125802	    0.000042	    0.044080	    0.044122	   -0.018440	   -0.035431	   -0.053872	    0.018733	    0.025121	    0.043854	    0.064817	    0.035029	    0.099847	    0.030097	    0.057842	    0.087939	   -0.007579	    0.002790	   -0.004790	   -0.014906	   -0.011518	   -0.026423	   -0.013848	    0.005547	   -0.008301	    0.019526	    0.003744	    0.023269	   -0.005651	   -0.013403	   -0.019053	    0.078102	    0.115151	    0.193253
     3.150	0	0	    0	   -0.037458	   -0.035361	   -0.072819	    0.007343	    0.014961	    0.022304	    0.045430	    0.092327	    0.137757	    0.034830	    0.146722	    0.181552	   -0.015898	    0.058604	    0.042706	   -0.028094	   -0.003694	   -0.031789	   -0.034116	    0.030035	   -0.004082	    0.038852	    0.024594	    0.063446	   -0.030573	   -0.036936	   -0.067509	   -0.004008	    0.000342	   -0.003666	    0.015976	    0.054854	    0.070831	   -0.014340	    0.061298	    0.046958	   -0.016661	   -0.004949	   -0.021610	    0.000489	    0.018077	    0.018566	    0.054895	    0.036840	    0.091735	    0.033088	    0.059885	    0.092973	   -0.012384	    0.010629	   -0.001755	   -0.019021	    0.002006	   -0.017015	   -0.024722	   -0.001112	   -0.025834	    0.005026	    0.007646	    0.012672	   -0.006002	   -0.007127	   -0.013129	    0.072971	    0.115773	    0.188744
     3.225	0	0	    0	   -0.038898	   -0.026337	   -0.065235	   -0.001288	    0.016572	    0.015284	    0.043192	    0.072381	    0.115573	    0.045384	    0.129674	    0.175057	   -0.012281	    0.055536	    0.043255	   -0.027457	   -0.014753	   -0.042210	   -0.029323	    0.008745	   -0.020578	    0.034978	    0.025964	    0.060942	   -0.035916	   -0.018429	   -0.054345	   -0.009189	    0.001680	   -0.007510	    0.014477	    0.045210	    0.059687	   -0.021307	    0.043611	    0.022303	   -0.017448	   -0.012230	   -0.029677	   -0.008039	    0.014329	    0.006289	    0.062352	    0.020759	    0.083111	    0.031353	    0.060831	    0.092184	   -0.015940	    0.009038	   -0.006902	   -0.019113	    0.001190	   -0.017923	   -0.017839	   -0.002417	   -0.020255	   -0.000909	    0.007291	    0.006383	   -0.011475	   -0.005060	   -0.016535	    0.075012	    0.108109	    0.183121
     3.300	0	0	    0	   -0.040199	   -0.021617	   -0.061816	   -0.006447	    0.007319	    0.000872	    0.061686	    0.077058	    0.138744	    0.064822	    0.147535	    0.212357	   -0.009636	    0.069868	    0.060232	   -0.029100	    0.000978	   -0.028122	   -0.015812	    0.023247	    0.007436	    0.029465	    0.028273	    0.057738	   -0.048873	   -0.028185	   -0.077058	   -0.010557	   -0.001802	   -0.012359	    0.028232	    0.045279	    0.073511	   -0.021793	    0.043121	    0.021327	   -0.019821	   -0.016400	   -0.036222	   -0.002277	    0.011498	    0.009221	    0.052230	    0.024126	    0.076356	    0.030528	    0.059099	    0.089626	   -0.013711	    0.007524	   -0.006187	   -0.018728	   -0.000876	   -0.019604	   -0.009075	    0.003905	   -0.005170	    0.005650	    0.004236	    0.009886	   -0.016759	   -0.013577	   -0.030336	    0.072305	    0.116820	    0.189125
     3.375	0	0	    0	   -0.037293	   -0.017966	   -0.055259	   -0.003723	    0.003363	   -0.000360	    0.090015	    0.100675	    0.190690	    0.088237	    0.174731	    0.262968	    0.015968	    0.067103	    0.083071	   -0.023566	   -0.004532	   -0.028098	   -0.000899	    0.038284	    0.037385	    0.034546	    0.029557	    0.064103	   -0.056110	   -0.036937	   -0.093048	   -0.018790	   -0.013210	   -0.032000	    0.046750	    0.071839	    0.118590	   -0.000328	    0.037246	    0.036918	   -0.021757	   -0.021806	   -0.043563	    0.002345	    0.017304	    0.019649	    0.062710	    0.022559	    0.085268	    0.029885	    0.060330	    0.090214	   -0.015483	    0.004013	   -0.011469	   -0.017679	   -0.010302	   -0.027981	   -0.005138	    0.003759	   -0.001379	    0.010870	    0.006238	    0.017107	   -0.016057	   -0.019002	   -0.035059	    0.087566	    0.113432	    0.200998
     3.450	0	0	    0	   -0.039498	   -0.026104	   -0.065602	    0.008301	    0.006025	    0.014326	    0.084949	    0.118089	    0.203038	    0.066962	    0.175190	    0.242152	    0.005159	    0.067842	    0.073001	   -0.016658	    0.001306	   -0.015352	   -0.001277	    0.037468	    0.036191	    0.038644	    0.026739	    0.065383	   -0.044541	   -0.045405	   -0.089946	   -0.009132	   -0.015573	   -0.024705	    0.044098	    0.080046	    0.124145	   -0.003003	    0.042947	    0.039944	   -0.013594	   -0.018763	   -0.032357	    0.010492	    0.020013	    0.030505	    0.059601	    0.031840	    0.091441	    0.036280	    0.060087	    0.096368	   -0.003108	    0.002049	   -0.001059	   -0.012620	   -0.008205	   -0.020826	   -0.007574	    0.004568	   -0.003006	    0.016776	    0.006000	    0.022776	   -0.005113	   -0.015003	   -0.020116	    0.077168	    0.123138	    0.200306
     3.525	0	0	    0	   -0.030975	   -0.037448	   -0.068423	    0.022614	    0.013329	    0.035943	    0.060473	    0.107038	    0.167511	    0.011383	    0.113258	    0.124641	   -0.026092	    0.042825	    0.016733	   -0.020546	    0.007521	   -0.013025	   -0.028298	    0.029818	    0.001521	    0.054142	    0.025172	    0.079315	   -0.030544	   -0.038119	   -0.068663	    0.001673	   -0.004191	   -0.002517	    0.022101	    0.068263	    0.090364	   -0.009928	    0.030685	    0.020756	   -0.001579	   -0.014473	   -0.016052	    0.004785	    0.020478	    0.025263	    0.072609	    0.022596	    0.095204	    0.039871	    0.061650	    0.101520	    0.001715	    0.014048	    0.015762	   -0.008937	    0.000232	   -0.008705	   -0.021413	    0.003275	   -0.018138	    0.014232	    0.009989	    0.024221	    0.001670	   -0.010185	   -0.008515	    0.088416	    0.114416	    0.202832
     3.600	0	0	    0	   -0.031866	   -0.030618	   -0.062484	    0.019653	    0.030232	    0.049885	    0.027091	    0.072814	    0.099905	    0.008813	    0.041946	    0.050759	   -0.025090	   -0.005747	   -0.030837	   -0.054518	   -0.003740	   -0.058258	   -0.072445	   -0.006600	   -0.079045	    0.052227	    0.032498	    0.084725	   -0.005176	   -0.017068	   -0.022245	    0.004295	    0.009254	    0.013549	    0.008958	    0.043428	    0.052387	   -0.004800	    0.010208	    0.005407	    0.001425	   -0.001793	   -0.000368	   -0.008303	    0.013178	    0.004874	    0.079674	    0.017617	    0.097292	    0.049253	    0.060366	    0.109619	   -0.004383	    0.018387	    0.014004	   -0.008728	    0.010976	    0.002248	   -0.023574	   -0.000247	   -0.023821	    0.001562	    0.011860	    0.013422	    0.012065	   -0.001985	    0.010080	    0.091537	    0.106186	    0.197723
     3.675	0	0	    0	   -0.031064	   -0.025374	   -0.056438	    0.010881	    0.031973	    0.042854	    0.025356	    0.052607	    0.077963	    0.013129	    0.035850	    0.048979	   -0.021032	   -0.009853	   -0.030885	   -0.058793	   -0.016788	   -0.075582	   -0.070844	   -0.023268	   -0.094112	    0.048598	    0.030233	    0.078831	   -0.010555	    0.003278	   -0.007277	   -0.000338	    0.013243	    0.012905	    0.008585	    0.030972	    0.039556	   -0.005568	    0.003570	   -0.001998	   -0.010111	    0.002795	   -0.007316	   -0.015491	    0.009070	   -0.006421	    0.077223	    0.019264	    0.096487	    0.049637	    0.063784	    0.113420	   -0.005707	    0.018139	    0.012432	   -0.011270	    0.011418	    0.000148	   -0.019854	    0.000413	   -0.019440	   -0.000776	    0.012143	    0.011368	    0.007815	    0.011116	    0.018931	    0.094931	    0.101828	    0.196759
     3.750	0	0	    0	   -0.022506	   -0.035696	   -0.058202	    0.012543	    0.022337	    0.034880	    0.030457	    0.051268	    0.081725	    0.014300	    0.033972	    0.048272	   -0.019711	   -0.009759	   -0.029470	   -0.051437	   -0.020985	   -0.072421	   -0.058200	   -0.030159	   -0.088359	    0.054161	    0.023933	    0.078094	   -0.015277	   -0.004593	   -0.019870	    0.003819	    0.011760	    0.015579	    0.009877	    0.030087	    0.039964	   -0.005749	    0.003341	   -0.002408	   -0.011192	   -0.000381	   -0.011573	   -0.011782	    0.002853	   -0.008929	    0.070030	    0.021828	    0.091858	    0.050702	    0.063764	    0.114466	   -0.002607	    0.014779	    0.012172	   -0.008605	    0.010036	    0.001431	   -0.018390	    0.004123	   -0.014267	   -0.000720	    0.009561	    0.008841	    0.004276	    0.006069	    0.010344	    0.089770	    0.108653	    0.198423
     3.825	0	0	    0	   -0.025013	   -0.032493	   -0.057506	    0.011604	    0.025607	    0.037211	    0.026307	    0.051964	    0.078272	    0.011136	    0.034840	    0.045976	   -0.022417	   -0.007953	   -0.030370	   -0.054925	   -0.015749	   -0.070673	   -0.067266	   -0.020100	   -0.087366	    0.052505	    0.027731	    0.080236	   -0.008985	   -0.007945	   -0.016931	    0.002070	    0.013739	    0.015808	    0.010561	    0.031093	    0.041654	   -0.003897	    0.004441	    0.000543	   -0.012225	   -0.001324	   -0.013550	   -0.018615	    0.006882	   -0.011733	    0.074068	    0.021679	    0.095748	    0.054262	    0.064330	    0.118592	   -0.002226	    0.016294	    0.014068	   -0.009558	    0.012284	    0.002726	   -0.018886	    0.004913	   -0.013973	   -0.000710	    0.010103	    0.009393	    0.005725	    0.002298	    0.008023	    0.088756	    0.109917	    0.198672
     3.900	0	0	    0	   -0.026734	   -0.033988	   -0.060722	    0.009366	    0.027850	    0.037216	    0.025048	    0.049591	    0.074638	    0.009412	    0.032225	    0.041637	   -0.025224	   -0.008499	   -0.033723	   -0.055705	   -0.018750	   -0.074455	   -0.062747	   -0.028849	   -0.091596	    0.051319	    0.027282	    0.078601	   -0.010239	    0.000599	   -0.009640	   -0.002386	    0.014111	    0.011725	    0.009608	    0.034298	    0.043906	   -0.006530	    0.006857	    0.000327	   -0.012242	    0.000684	   -0.011558	   -0.011229	   -0.000128	   -0.011357	    0.071787	    0.022024	    0.093811	    0.052709	    0.066800	    0.119509	   -0.004492	    0.017193	    0.012700	   -0.012484	    0.013107	    0.000623	   -0.022624	    0.004398	   -0.018225	   -0.003325	    0.010894	    0.007569	    0.005168	    0.005103	    0.010272	    0.093477	    0.106813	    0.200290
     3.975	0	0	    0	   -0.032001	   -0.028889	   -0.060890	    0.005171	    0.029156	    0.034327	    0.019472	    0.051780	    0.071252	    0.006363	    0.034659	    0.041023	   -0.026531	   -0.009173	   -0.035704	   -0.059370	   -0.017587	   -0.076957	   -0.068884	   -0.026821	   -0.095705	    0.046817	    0.029818	    0.076634	   -0.009446	    0.003407	   -0.006039	   -0.005620	    0.013129	    0.007509	    0.007710	    0.033870	    0.041579	   -0.006715	    0.005984	   -0.000731	   -0.015795	    0.000884	   -0.014911	   -0.015149	    0.000971	   -0.014179	    0.071978	    0.020392	    0.092370	    0.050739	    0.068534	    0.119272	   -0.007021	    0.018188	    0.011168	   -0.015001	    0.012481	   -0.002520	   -0.023698	    0.004931	   -0.018767	   -0.005882	    0.010774	    0.004891	    0.004354	    0.006667	    0.011021	    0.084722	    0.110970	    0.195692
     4.050	0	0	    0	   -0.028563	   -0.033766	   -0.062329	    0.002313	    0.029498	    0.031811	    0.016581	    0.050943	    0.067524	    0.005001	    0.032803	    0.037803	   -0.025973	   -0.010604	   -0.036577	   -0.060811	   -0.017627	   -0.078438	   -0.073857	   -0.021714	   -0.095572	    0.049425	    0.025304	    0.074729	   -0.010782	    0.004914	   -0.005868	   -0.008172	    0.013834	    0.005661	    0.005940	    0.034084	    0.040024	   -0.009248	    0.005920	   -0.003328	   -0.016935	    0.001222	   -0.015712	   -0.021023	    0.005269	   -0.015754	    0.075468	    0.021449	    0.096918	    0.051740	    0.068298	    0.120037	   -0.008286	    0.018202	    0.009915	   -0.016332	    0.012408	   -0.003924	   -0.025124	    0.004517	   -0.020606	   -0.008156	    0.011183	    0.003027	    0.002417	    0.008560	    0.010977	    0.091721	    0.106564	    0.198284
     4.125	0	0	    0	   -0.040045	   -0.022864	   -0.062909	    0.001592	    0.025741	    0.027333	    0.015176	    0.049116	    0.064292	    0.002958	    0.033716	    0.036674	   -0.027969	   -0.008802	   -0.036772	   -0.057165	   -0.022157	   -0.079322	   -0.071904	   -0.027384	   -0.099288	    0.044788	    0.026115	    0.070903	   -0.014978	    0.007101	   -0.007878	   -0.008814	    0.012534	    0.003720	    0.004090	    0.032873	    0.036963	   -0.009610	    0.006002	   -0.003608	   -0.019625	    0.000594	   -0.019032	   -0.020878	    0.001656	   -0.019222	    0.065533	    0.023465	    0.088998	    0.049761	    0.070388	    0.120149	   -0.008835	    0.018351	    0.009515	   -0.017854	    0.012255	   -0.005599	   -0.025867	    0.004848	   -0.021018	   -0.009741	    0.010419	    0.000678	    0.000572	    0.007948	    0.008521	    0.083538	    0.111843	    0.195381
     4.200	0	0	    0	   -0.039664	   -0.023857	   -0.063521	   -0.001469	    0.027772	    0.026303	    0.013042	    0.049093	    0.062135	    0.003975	    0.032685	    0.036659	   -0.028700	   -0.007878	   -0.036578	   -0.062946	   -0.017387	   -0.080334	   -0.073963	   -0.026940	   -0.100903	    0.040106	    0.029411	    0.069517	   -0.012521	    0.004148	   -0.008373	   -0.011127	    0.012936	    0.001809	    0.003394	    0.033913	    0.037307	   -0.012231	    0.007022	   -0.005209	   -0.020351	    0.001281	   -0.019071	   -0.023835	    0.005967	   -0.017868	    0.065637	    0.021468	    0.087105	    0.050880	    0.067788	    0.118668	   -0.010570	    0.018806	    0.008235	   -0.019434	    0.012234	   -0.007200	   -0.027647	    0.004167	   -0.023480	   -0.011797	    0.010553	   -0.001244	    0.000248	    0.007539	    0.007787	    0.088035	    0.108390	    0.196425
     4.275	0	0	    0	   -0.035847	   -0.029222	   -0.065069	   -0.003306	    0.026745	    0.023439	    0.011775	    0.049784	    0.061559	    0.000752	    0.036124	    0.036876	   -0.029397	   -0.007286	   -0.036683	   -0.066668	   -0.014878	   -0.081547	   -0.077250	   -0.022536	   -0.099785	    0.043144	    0.027236	    0.070379	   -0.014107	    0.004964	   -0.009143	   -0.013240	    0.012569	   -0.000671	    0.002472	    0.033576	    0.036048	   -0.012314	    0.007124	   -0.005189	   -0.023308	    0.000486	   -0.022822	   -0.024265	    0.002440	   -0.021825	    0.070515	    0.018945	    0.089459	    0.048437	    0.070314	    0.118750	   -0.011415	    0.018443	    0.007029	   -0.021339	    0.012232	   -0.009107	   -0.029043	    0.005461	   -0.023582	   -0.013662	    0.010865	   -0.002797	   -0.002173	    0.007727	    0.005554	    0.090598	    0.107014	    0.197612
     4.350	0	0	    0	   -0.033653	   -0.029429	   -0.063082	   -0.006371	    0.027068	    0.020697	    0.010663	    0.047931	    0.058594	    0.002668	    0.033450	    0.036118	   -0.030679	   -0.005954	   -0.036633	   -0.065190	   -0.017922	   -0.083112	   -0.077243	   -0.029244	   -0.106487	    0.046256	    0.024035	    0.070292	   -0.016505	    0.006210	   -0.010295	   -0.014759	    0.012604	   -0.002155	    0.001206	    0.033943	    0.035149	   -0.012820	    0.007026	   -0.005794	   -0.024110	    0.000802	   -0.023308	   -0.024968	    0.001973	   -0.022995	    0.066794	    0.019141	    0.085936	    0.047704	    0.068978	    0.116682	   -0.012825	    0.018152	    0.005327	   -0.021925	    0.011954	   -0.009971	   -0.030111	    0.004567	   -0.025545	   -0.016431	    0.010885	   -0.005546	   -0.002318	    0.006535	    0.004217	    0.088288	    0.108341	    0.196629
     4.425	0	0	    0	   -0.029669	   -0.020780	   -0.050449	    0.003458	    0.026142	    0.029601	    0.020092	    0.046900	    0.066992	    0.009097	    0.034431	    0.043528	   -0.026225	   -0.005626	   -0.031851	   -0.060922	   -0.018095	   -0.079017	   -0.068600	   -0.029681	   -0.098281	    0.049224	    0.028230	    0.077454	   -0.013961	    0.007327	   -0.006635	   -0.006902	    0.011870	    0.004968	    0.007371	    0.033977	    0.041348	   -0.008366	    0.007342	   -0.001024	   -0.023196	    0.000288	   -0.022908	   -0.017794	    0.001745	   -0.016048	    0.074618	    0.022202	    0.096819	    0.054383	    0.067744	    0.122127	   -0.004981	    0.018459	    0.013478	   -0.013859	    0.011965	   -0.001893	   -0.024587	    0.004304	   -0.020284	   -0.012387	    0.010193	   -0.002193	    0.003748	    0.006800	    0.010548	    0.093464	    0.112504	    0.205968
     4.500	0	0	    0	   -0.035057	   -0.015554	   -0.050611	    0.008871	    0.027115	    0.035986	    0.023094	    0.050910	    0.074003	    0.008564	    0.039122	    0.047686	   -0.026793	   -0.003006	   -0.029799	   -0.059071	   -0.014920	   -0.073991	   -0.066243	   -0.025711	   -0.091954	    0.051806	    0.027645	    0.079450	   -0.009594	    0.007506	   -0.002088	   -0.003567	    0.014213	    0.010647	    0.010131	    0.034889	    0.045020	   -0.006646	    0.008865	    0.002219	   -0.020993	    0.001673	   -0.019320	   -0.016128	    0.003573	   -0.012555	    0.082931	    0.017204	    0.100135	    0.057250	    0.070730	    0.127980	    0.000239	    0.021628	    0.021867	   -0.010824	    0.013666	    0.002842	   -0.021239	    0.005368	   -0.015870	   -0.008538	    0.011706	    0.003167	    0.007093	    0.009085	    0.016177	    0.098513	    0.109305	    0.207818
     4.575	0	0	    0	   -0.027108	   -0.023534	   -0.050642	    0.009990	    0.028357	    0.038347	    0.026141	    0.050266	    0.076408	    0.010735	    0.038739	    0.049473	   -0.025749	   -0.003152	   -0.028901	   -0.056988	   -0.015026	   -0.072014	   -0.066259	   -0.027843	   -0.094103	    0.051603	    0.025967	    0.077570	   -0.004616	    0.005314	    0.000697	   -0.001883	    0.014682	    0.012799	    0.012030	    0.035853	    0.047883	   -0.005912	    0.010494	    0.004582	   -0.017810	    0.000356	   -0.017454	   -0.014033	    0.004008	   -0.010025	    0.081346	    0.019069	    0.100415	    0.060231	    0.069622	    0.129853	    0.003555	    0.022307	    0.025862	   -0.008955	    0.014597	    0.005642	   -0.020351	    0.006231	   -0.014121	   -0.005628	    0.011663	    0.006035	    0.010285	    0.009346	    0.019631	    0.094473	    0.112615	    0.207088
     4.650	0	0	    0	   -0.026146	   -0.025776	   -0.051922	    0.009654	    0.029250	    0.038904	    0.023867	    0.051263	    0.075130	    0.010836	    0.039246	    0.050082	   -0.023872	   -0.005380	   -0.029251	   -0.059020	   -0.015871	   -0.074891	   -0.065337	   -0.029715	   -0.095052	    0.047653	    0.027545	    0.075199	   -0.003286	    0.006919	    0.003633	   -0.003216	    0.015024	    0.011808	    0.010783	    0.036889	    0.047672	   -0.006423	    0.010704	    0.004281	   -0.019601	    0.001844	   -0.017757	   -0.012588	    0.001968	   -0.010620	    0.071365	    0.025656	    0.097021	    0.060026	    0.070139	    0.130165	    0.003405	    0.023425	    0.026829	   -0.009555	    0.015174	    0.005619	   -0.020783	    0.006247	   -0.014536	   -0.005687	    0.012052	    0.006365	    0.009830	    0.010453	    0.020283	    0.093503	    0.110805	    0.204309
     4.725	0	0	    0	   -0.021147	   -0.025699	   -0.046847	    0.009925	    0.029620	    0.039545	    0.023712	    0.051377	    0.075089	    0.010764	    0.040267	    0.051031	   -0.024254	   -0.003572	   -0.027825	   -0.058221	   -0.014117	   -0.072337	   -0.059906	   -0.032879	   -0.092785	    0.053419	    0.024386	    0.077804	   -0.004707	    0.010031	    0.005324	   -0.002989	    0.014101	    0.011112	    0.011715	    0.036660	    0.048376	   -0.006081	    0.011166	    0.005085	   -0.020186	    0.001180	   -0.019007	   -0.010070	    0.000705	   -0.009365	    0.076375	    0.022734	    0.099109	    0.060696	    0.069491	    0.130188	    0.004338	    0.023290	    0.027628	   -0.009315	    0.015200	    0.005885	   -0.020956	    0.006960	   -0.013996	   -0.006011	    0.011904	    0.005893	    0.010192	    0.009529	    0.019720	    0.098970	    0.108253	    0.207222
     4.800	0	0	    0	   -0.025657	   -0.023745	   -0.049402	    0.009052	    0.029294	    0.038346	    0.022839	    0.052824	    0.075662	    0.010492	    0.041527	    0.052019	   -0.024025	   -0.002975	   -0.027000	   -0.054671	   -0.017925	   -0.072595	   -0.060127	   -0.029268	   -0.089396	    0.052718	    0.025504	    0.078222	   -0.006135	    0.011546	    0.005411	   -0.004374	    0.015050	    0.010676	    0.011116	    0.037495	    0.048611	   -0.006390	    0.011996	    0.005606	   -0.021022	    0.001909	   -0.019113	   -0.015709	    0.005154	   -0.010555	    0.081103	    0.021409	    0.102512	    0.060554	    0.070550	    0.131104	    0.003911	    0.025090	    0.029001	   -0.010453	    0.016441	    0.005988	   -0.020966	    0.006965	   -0.014002	   -0.006417	    0.012071	    0.005654	    0.009994	    0.009948	    0.019942	    0.094945	    0.110177	    0.205121
     4.875	0	0	    0	   -0.026358	   -0.025540	   -0.051898	    0.006315	    0.030621	    0.036936	    0.021927	    0.052978	    0.074905	    0.009747	    0.043653	    0.053400	   -0.026269	   -0.001023	   -0.027292	   -0.062100	   -0.011734	   -0.073834	   -0.066037	   -0.026673	   -0.092709	    0.045984	    0.029426	    0.075411	   -0.005508	    0.010346	    0.004838	   -0.006650	    0.014601	    0.007951	    0.010070	    0.038375	    0.048445	   -0.007876	    0.012559	    0.004682	   -0.021069	    0.000690	   -0.020380	   -0.015579	    0.005709	   -0.009870	    0.075097	    0.019299	    0.094396	    0.059277	    0.070450	    0.129726	    0.002886	    0.025425	    0.028311	   -0.012032	    0.016686	    0.004654	   -0.021848	    0.007212	   -0.014636	   -0.007001	    0.012182	    0.005180	    0.009572	    0.011142	    0.020714	    0.090436	    0.113257	    0.203693
     4.950	0	0	    0	   -0.027660	   -0.021752	   -0.049412	    0.004874	    0.030260	    0.035134	    0.020696	    0.052684	    0.073380	    0.009784	    0.044535	    0.054319	   -0.026889	    0.001681	   -0.025208	   -0.062300	   -0.012381	   -0.074681	   -0.068001	   -0.023104	   -0.091105	    0.048017	    0.026369	    0.074386	   -0.006006	    0.011857	    0.005851	   -0.009710	    0.013931	    0.004221	    0.009329	    0.038451	    0.047780	   -0.008352	    0.012826	    0.004474	   -0.024508	    0.001235	   -0.023273	   -0.018288	    0.007202	   -0.011086	    0.078273	    0.017847	    0.096120	    0.058736	    0.070357	    0.129093	    0.002524	    0.025153	    0.027678	   -0.013443	    0.015832	    0.002389	   -0.022336	    0.007879	   -0.014458	   -0.008299	    0.011998	    0.003698	    0.010273	    0.010630	    0.020904	    0.095851	    0.109455	    0.205306
     5.025	0	0	    0	   -0.026663	   -0.023002	   -0.049665	    0.002478	    0.029513	    0.031991	    0.019618	    0.053792	    0.073410	    0.008416	    0.047184	    0.055599	   -0.026568	    0.000536	   -0.026032	   -0.059263	   -0.015256	   -0.074519	   -0.058531	   -0.034173	   -0.092705	    0.045451	    0.026242	    0.071693	   -0.008050	    0.012507	    0.004457	   -0.011119	    0.013607	    0.002488	    0.008705	    0.038277	    0.046982	   -0.009254	    0.013199	    0.003945	   -0.025473	   -0.000235	   -0.025708	   -0.015350	    0.002409	   -0.012941	    0.067342	    0.022006	    0.089349	    0.056914	    0.070008	    0.126922	    0.000748	    0.026147	    0.026896	   -0.014843	    0.016120	    0.001277	   -0.024127	    0.008226	   -0.015901	   -0.009813	    0.011992	    0.002178	    0.007872	    0.011341	    0.019213	    0.088343	    0.112202	    0.200545
     5.100	0	0	    0	   -0.026512	   -0.024272	   -0.050784	    0.001551	    0.029817	    0.031368	    0.017698	    0.053979	    0.071677	    0.009149	    0.047714	    0.056863	   -0.028010	    0.001622	   -0.026388	   -0.057309	   -0.018001	   -0.075311	   -0.064998	   -0.027967	   -0.092965	    0.047755	    0.019981	    0.067736	   -0.009786	    0.013640	    0.003854	   -0.013844	    0.013316	   -0.000527	    0.007110	    0.038326	    0.045436	   -0.011116	    0.014200	    0.003084	   -0.027231	    0.000146	   -0.027085	   -0.016863	    0.001059	   -0.015804	    0.073533	    0.017160	    0.090693	    0.055781	    0.069113	    0.124894	   -0.001243	    0.026247	    0.025004	   -0.016679	    0.015937	   -0.000742	   -0.025081	    0.008362	   -0.016719	   -0.011584	    0.012154	    0.000570	    0.005940	    0.011184	    0.017125	    0.088904	    0.105091	    0.193996
     5.175	0	0	    0	   -0.032062	   -0.017252	   -0.049314	    0.000558	    0.028778	    0.029336	    0.018014	    0.052220	    0.070235	    0.010623	    0.048777	    0.059400	   -0.028403	    0.002860	   -0.025543	   -0.057940	   -0.017852	   -0.075791	   -0.060641	   -0.032338	   -0.092978	    0.043491	    0.025370	    0.068861	   -0.009569	    0.013496	    0.003927	   -0.015571	    0.013170	   -0.002401	    0.005738	    0.038795	    0.044534	   -0.013406	    0.014225	    0.000818	   -0.028560	    0.000142	   -0.028418	   -0.018062	    0.001567	   -0.016495	    0.073641	    0.017521	    0.091162	    0.056278	    0.067936	    0.124214	   -0.002189	    0.026078	    0.023889	   -0.018135	    0.016164	   -0.001971	   -0.025392	    0.008364	   -0.017027	   -0.012811	    0.011946	   -0.000866	    0.005589	    0.010141	    0.015730	    0.087189	    0.107427	    0.194616
     5.250	0	0	    0	   -0.030216	   -0.024348	   -0.054564	   -0.002177	    0.026780	    0.024603	    0.019050	    0.051913	    0.070962	    0.007868	    0.055856	    0.063724	   -0.029105	    0.004487	   -0.024619	   -0.059017	   -0.017729	   -0.076746	   -0.059646	   -0.031351	   -0.090997	    0.042013	    0.024860	    0.066873	   -0.012410	    0.013494	    0.001084	   -0.016889	    0.012568	   -0.004321	    0.005220	    0.038369	    0.043589	   -0.014929	    0.014369	   -0.000560	   -0.032481	   -0.001088	   -0.033569	   -0.019199	    0.003690	   -0.015509	    0.073389	    0.014474	    0.087863	    0.053605	    0.068981	    0.122586	   -0.003248	    0.026032	    0.022783	   -0.020466	    0.015703	   -0.004762	   -0.024745	    0.009100	   -0.015644	   -0.014409	    0.012142	   -0.002266	    0.003372	    0.011809	    0.015180	    0.083711	    0.112230	    0.195941
     5.325	0	0	    0	   -0.030437	   -0.024611	   -0.055048	   -0.004124	    0.028006	    0.023882	    0.016549	    0.054485	    0.071034	    0.008442	    0.053673	    0.062115	   -0.028786	    0.003934	   -0.024852	   -0.062013	   -0.016427	   -0.078440	   -0.062210	   -0.031462	   -0.093671	    0.041029	    0.022798	    0.063827	   -0.012510	    0.012892	    0.000382	   -0.018776	    0.012691	   -0.006085	    0.004215	    0.039531	    0.043746	   -0.015866	    0.016225	    0.000359	   -0.032888	   -0.002816	   -0.035704	   -0.020550	    0.001967	   -0.018584	    0.063836	    0.022921	    0.086757	    0.049392	    0.070660	    0.120052	   -0.005050	    0.026828	    0.021778	   -0.021674	    0.015817	   -0.005857	   -0.027651	    0.009977	   -0.017674	   -0.015782	    0.011722	   -0.004059	    0.002170	    0.012015	    0.014184	    0.081459	    0.112163	    0.193622
     5.400	0	0	    0	   -0.032513	   -0.019324	   -0.051837	   -0.009472	    0.032084	    0.022612	    0.013104	    0.055761	    0.068866	    0.009902	    0.053825	    0.063727	   -0.030993	    0.006874	   -0.024119	   -0.069519	   -0.010144	   -0.079663	   -0.072716	   -0.022028	   -0.094744	    0.043633	    0.025667	    0.069300	   -0.014971	    0.013655	   -0.001316	   -0.020585	    0.011902	   -0.008683	    0.003790	    0.039154	    0.042945	   -0.014945	    0.015795	    0.000850	   -0.034338	   -0.001705	   -0.036043	   -0.021257	    0.003248	   -0.018009	    0.069848	    0.019370	    0.089217	    0.048778	    0.068780	    0.117558	   -0.006824	    0.026428	    0.019604	   -0.021701	    0.015167	   -0.006534	   -0.028326	    0.009445	   -0.018881	   -0.017956	    0.011690	   -0.006266	    0.001355	    0.011441	    0.012796	    0.088167	    0.104940	    0.193106
     5.475	0	0	    0	   -0.024830	   -0.017832	   -0.042662	    0.001446	    0.029940	    0.031386	    0.022474	    0.055634	    0.078108	    0.013204	    0.056412	    0.069616	   -0.029609	    0.008981	   -0.020628	   -0.065618	   -0.009816	   -0.075434	   -0.063472	   -0.024392	   -0.087864	    0.045543	    0.027817	    0.073360	   -0.010698	    0.012738	    0.002041	   -0.012101	    0.011281	   -0.000820	    0.008350	    0.039033	    0.047382	   -0.010947	    0.016427	    0.005480	   -0.031491	   -0.003006	   -0.034497	   -0.019130	    0.006168	   -0.012963	    0.076559	    0.023821	    0.100380	    0.055256	    0.068307	    0.123563	    0.002083	    0.025917	    0.028000	   -0.014377	    0.016139	    0.001762	   -0.022478	    0.009580	   -0.012898	   -0.012511	    0.010877	   -0.001634	    0.007518	    0.012461	    0.019979	    0.092090	    0.107320	    0.199410
     5.550	0	0	    0	   -0.019029	   -0.025721	   -0.044750	    0.005376	    0.030930	    0.036307	    0.027785	    0.055657	    0.083441	    0.012999	    0.057633	    0.070632	   -0.025278	    0.006339	   -0.018939	   -0.061076	   -0.010895	   -0.071971	   -0.060401	   -0.026372	   -0.086773	    0.047073	    0.027091	    0.074164	   -0.005770	    0.010177	    0.004407	   -0.008402	    0.013875	    0.005473	    0.010952	    0.040011	    0.050963	   -0.009318	    0.017364	    0.008046	   -0.029540	   -0.002159	   -0.031699	   -0.012291	    0.002993	   -0.009298	    0.077142	    0.018557	    0.095698	    0.057893	    0.068379	    0.126271	    0.006182	    0.028497	    0.034678	   -0.009439	    0.017250	    0.007811	   -0.019058	    0.011158	   -0.007900	   -0.007934	    0.011882	    0.003947	    0.011335	    0.013150	    0.024485	    0.092118	    0.109937	    0.202055
     5.625	0	0	    0	   -0.019390	   -0.028454	   -0.047844	    0.007937	    0.030516	    0.038453	    0.029457	    0.057535	    0.086992	    0.017297	    0.056141	    0.073438	   -0.025452	    0.007310	   -0.018142	   -0.061252	   -0.013115	   -0.074367	   -0.059730	   -0.024978	   -0.084708	    0.046961	    0.024083	    0.071044	   -0.010103	    0.014775	    0.004671	   -0.006575	    0.014591	    0.008016	    0.012098	    0.040172	    0.052270	   -0.009044	    0.018214	    0.009170	   -0.028256	   -0.001989	   -0.030245	   -0.017804	    0.005927	   -0.011876	    0.073673	    0.019870	    0.093543	    0.056725	    0.070090	    0.126815	    0.008766	    0.028633	    0.037399	   -0.007396	    0.018428	    0.011032	   -0.016938	    0.011820	   -0.005118	   -0.005681	    0.013236	    0.007555	    0.010597	    0.015272	    0.025870	    0.094872	    0.106301	    0.201173
     5.700	0	0	    0	   -0.024558	   -0.022448	   -0.047006	    0.007185	    0.030026	    0.037211	    0.028033	    0.058907	    0.086940	    0.017514	    0.057524	    0.075038	   -0.024530	    0.007493	   -0.017037	   -0.059671	   -0.014161	   -0.073832	   -0.059464	   -0.021225	   -0.080689	    0.044630	    0.025119	    0.069749	   -0.010178	    0.011389	    0.001212	   -0.005904	    0.014395	    0.008491	    0.012088	    0.040399	    0.052486	   -0.008300	    0.018763	    0.010463	   -0.028988	   -0.001567	   -0.030555	   -0.018163	    0.002428	   -0.015736	    0.070721	    0.019674	    0.090395	    0.058112	    0.065227	    0.123339	    0.009356	    0.028966	    0.038321	   -0.006752	    0.018796	    0.012044	   -0.016789	    0.013133	   -0.003656	   -0.005414	    0.014622	    0.009208	    0.009409	    0.011155	    0.020564	    0.094417	    0.107343	    0.201761
     5.775	0	0	    0	   -0.027660	   -0.015303	   -0.042964	    0.007235	    0.030203	    0.037439	    0.028822	    0.058952	    0.087774	    0.017252	    0.061023	    0.078276	   -0.025155	    0.011449	   -0.013705	   -0.058314	   -0.009684	   -0.067999	   -0.057622	   -0.020921	   -0.078543	    0.042005	    0.027486	    0.069491	   -0.007590	    0.007847	    0.000257	   -0.004567	    0.015208	    0.010642	    0.012616	    0.040455	    0.053070	   -0.008651	    0.019729	    0.011078	   -0.027639	   -0.001813	   -0.029452	   -0.013583	   -0.000506	   -0.014089	    0.076934	    0.014811	    0.091745	    0.057736	    0.067768	    0.125504	    0.009420	    0.029856	    0.039275	   -0.006414	    0.019609	    0.013195	   -0.015573	    0.013523	   -0.002050	   -0.004919	    0.014511	    0.009591	    0.009036	    0.010901	    0.019938	    0.090283	    0.111480	    0.201763
     5.850	0	0	    0	   -0.030766	   -0.014095	   -0.044862	    0.002732	    0.033753	    0.036485	    0.029879	    0.061393	    0.091272	    0.018528	    0.064145	    0.082672	   -0.024088	    0.012980	   -0.011108	   -0.059582	   -0.006854	   -0.066436	   -0.061801	   -0.014967	   -0.076769	    0.045905	    0.023279	    0.069184	   -0.009829	    0.009165	   -0.000663	   -0.004663	    0.015852	    0.011188	    0.012985	    0.041300	    0.054286	   -0.007754	    0.020609	    0.012855	   -0.028802	   -0.000996	   -0.029797	   -0.017572	    0.005610	   -0.011962	    0.078740	    0.011965	    0.090705	    0.055728	    0.070125	    0.125854	    0.009721	    0.030269	    0.039991	   -0.006246	    0.019669	    0.013423	   -0.014045	    0.014673	    0.000628	   -0.003981	    0.014911	    0.010930	    0.010203	    0.010706	    0.020909	    0.100121	    0.103466	    0.203588
     5.925	0	0	    0	   -0.030441	   -0.018750	   -0.049192	    0.002374	    0.032393	    0.034767	    0.029206	    0.060831	    0.090037	    0.017430	    0.064407	    0.081837	   -0.024076	    0.012359	   -0.011717	   -0.063444	   -0.005739	   -0.069183	   -0.061577	   -0.015566	   -0.077143	    0.042217	    0.022715	    0.064932	   -0.011391	    0.007747	   -0.003645	   -0.005903	    0.016172	    0.010269	    0.012073	    0.042334	    0.054407	   -0.007554	    0.020933	    0.013380	   -0.028081	   -0.000406	   -0.028487	   -0.016575	    0.002078	   -0.014497	    0.066431	    0.022046	    0.088477	    0.055849	    0.067263	    0.123112	    0.008967	    0.030743	    0.039709	   -0.007954	    0.020166	    0.012211	   -0.015545	    0.015595	    0.000050	   -0.004737	    0.015200	    0.010463	    0.007528	    0.012654	    0.020183	    0.093322	    0.109049	    0.202371
     6.000	0	0	    0	   -0.029361	   -0.017433	   -0.046794	    0.002852	    0.030820	    0.033672	    0.031550	    0.059769	    0.091319	    0.019771	    0.063684	    0.083455	   -0.024342	    0.013760	   -0.010582	   -0.054382	   -0.013985	   -0.068367	   -0.050735	   -0.026503	   -0.077239	    0.038258	    0.021355	    0.059613	   -0.014639	    0.008222	   -0.006418	   -0.005715	    0.015496	    0.009780	    0.011906	    0.042438	    0.054344	   -0.007896	    0.021940	    0.014044	   -0.027980	   -0.000493	   -0.028473	   -0.013387	   -0.002841	   -0.016228	    0.061207	    0.020731	    0.081938	    0.055856	    0.067020	    0.122876	    0.007765	    0.030443	    0.038208	   -0.008637	    0.020496	    0.011859	   -0.016356	    0.016243	   -0.000113	   -0.005770	    0.015660	    0.009889	    0.007081	    0.011788	    0.018869	    0.086194	    0.113924	    0.200118
     6.075	0	0	    0	   -0.031775	   -0.014394	   -0.046169	    0.004480	    0.027749	    0.032229	    0.030747	    0.059155	    0.089902	    0.018874	    0.065798	    0.084672	   -0.023290	    0.012430	   -0.010859	   -0.056502	   -0.014387	   -0.070889	   -0.048558	   -0.028399	   -0.076958	    0.035178	    0.023145	    0.058324	   -0.021259	    0.007038	   -0.014222	   -0.004956	    0.015641	    0.010685	    0.010779	    0.042488	    0.053267	   -0.009038	    0.022376	    0.013338	   -0.029062	    0.000487	   -0.028575	   -0.018979	   -0.002498	   -0.021477	    0.062527	    0.019479	    0.082006	    0.055995	    0.067944	    0.123939	    0.007057	    0.030355	    0.037412	   -0.009288	    0.020807	    0.011520	   -0.017736	    0.016648	   -0.001088	   -0.007295	    0.016504	    0.009209	    0.004943	    0.010434	    0.015377	    0.082699	    0.113491	    0.196190
     6.150	0	0	    0	   -0.034896	   -0.016833	   -0.051730	    0.004041	    0.029379	    0.033420	    0.030391	    0.058992	    0.089383	    0.016104	    0.069026	    0.085129	   -0.024878	    0.013830	   -0.011049	   -0.062300	   -0.012381	   -0.074681	   -0.056481	   -0.020705	   -0.077186	    0.036579	    0.019756	    0.056335	   -0.019777	    0.001708	   -0.018069	   -0.005776	    0.016011	    0.010235	    0.010322	    0.042618	    0.052939	   -0.010201	    0.022409	    0.012209	   -0.031458	   -0.000368	   -0.031826	   -0.023901	   -0.003156	   -0.027057	    0.059888	    0.013690	    0.073578	    0.056511	    0.066681	    0.123192	    0.007026	    0.029917	    0.036943	   -0.011401	    0.021064	    0.009663	   -0.019143	    0.017496	   -0.001647	   -0.007854	    0.016357	    0.008504	    0.002779	    0.008813	    0.011592	    0.082980	    0.106868	    0.189848
     6.225	0	0	    0	   -0.029364	   -0.023318	   -0.052682	    0.001444	    0.030564	    0.032008	    0.029067	    0.059753	    0.088820	    0.019772	    0.065780	    0.085551	   -0.023804	    0.012933	   -0.010871	   -0.062176	   -0.013782	   -0.075957	   -0.057296	   -0.021306	   -0.078602	    0.036742	    0.020004	    0.056746	   -0.024279	    0.004872	   -0.019406	   -0.006660	    0.016075	    0.009415	    0.009305	    0.042777	    0.052082	   -0.011352	    0.022445	    0.011093	   -0.031428	   -0.000351	   -0.031779	   -0.028206	   -0.002121	   -0.030327	    0.062402	    0.010558	    0.072960	    0.052656	    0.069927	    0.122583	    0.004993	    0.030455	    0.035448	   -0.013462	    0.021319	    0.007856	   -0.020561	    0.017465	   -0.003096	   -0.009354	    0.016969	    0.007616	    0.001085	    0.007515	    0.008600	    0.081997	    0.104194	    0.186191
     6.300	0	0	    0	   -0.032966	   -0.020869	   -0.053835	    0.000584	    0.030090	    0.030674	    0.027608	    0.060367	    0.087975	    0.019037	    0.066987	    0.086024	   -0.025534	    0.014967	   -0.010566	   -0.063472	   -0.014918	   -0.078390	   -0.055783	   -0.022422	   -0.078205	    0.034755	    0.019749	    0.054504	   -0.022713	    0.002532	   -0.020181	   -0.007062	    0.016201	    0.009138	    0.008832	    0.042389	    0.051220	   -0.011936	    0.021966	    0.010030	   -0.032651	   -0.000756	   -0.033407	   -0.028537	   -0.006375	   -0.034913	    0.059866	    0.009158	    0.069025	    0.053925	    0.067815	    0.121741	    0.004264	    0.030048	    0.034311	   -0.014568	    0.021504	    0.006935	   -0.021707	    0.018082	   -0.003625	   -0.009787	    0.017534	    0.007747	   -0.002331	    0.007739	    0.005409	    0.076860	    0.109038	    0.185898
     6.375	0	0	    0	   -0.024420	   -0.024226	   -0.048646	   -0.002382	    0.033035	    0.030653	    0.025128	    0.061820	    0.086948	    0.019041	    0.068241	    0.087282	   -0.024842	    0.013639	   -0.011203	   -0.074028	   -0.002100	   -0.076127	   -0.067426	   -0.007633	   -0.075060	    0.037616	    0.018668	    0.056284	   -0.025840	    0.005513	   -0.020327	   -0.009104	    0.017697	    0.008593	    0.007161	    0.043129	    0.050289	   -0.012639	    0.022154	    0.009515	   -0.033476	    0.000542	   -0.032934	   -0.030821	   -0.000903	   -0.031724	    0.053336	    0.013247	    0.066583	    0.051158	    0.071039	    0.122197	    0.002250	    0.031250	    0.033500	   -0.016509	    0.022105	    0.005596	   -0.022925	    0.017917	   -0.005008	   -0.011147	    0.018570	    0.007423	   -0.003534	    0.007375	    0.003840	    0.072702	    0.111416	    0.184118
     6.450	0	0	    0	   -0.027048	   -0.022500	   -0.049549	    0.001646	    0.029732	    0.031377	    0.030658	    0.058866	    0.089525	    0.022392	    0.067250	    0.089642	   -0.023363	    0.015885	   -0.007478	   -0.066689	   -0.010018	   -0.076707	   -0.056143	   -0.017056	   -0.073199	    0.039854	    0.022150	    0.062004	   -0.025552	    0.003014	   -0.022538	   -0.005261	    0.016187	    0.010926	    0.009895	    0.041929	    0.051824	   -0.009369	    0.022393	    0.013025	   -0.033393	   -0.000245	   -0.033637	   -0.026069	   -0.005202	   -0.031270	    0.056080	    0.015765	    0.071845	    0.054097	    0.068164	    0.122260	    0.005061	    0.029783	    0.034844	   -0.011586	    0.020692	    0.009107	   -0.020799	    0.017488	   -0.003311	   -0.009575	    0.017771	    0.008196	    0.000407	    0.003786	    0.004193	    0.085785	    0.102777	    0.188562
     6.525	0	0	    0	   -0.026643	   -0.016055	   -0.042698	    0.009142	    0.030612	    0.039754	    0.035248	    0.060522	    0.095770	    0.022393	    0.068681	    0.091073	   -0.020817	    0.014806	   -0.006011	   -0.058702	   -0.014756	   -0.073458	   -0.049342	   -0.020935	   -0.070276	    0.039685	    0.024493	    0.064178	   -0.018749	    0.002405	   -0.016344	    0.000041	    0.018831	    0.018872	    0.013208	    0.043158	    0.056367	   -0.006776	    0.023346	    0.016570	   -0.029700	    0.000806	   -0.028894	   -0.022412	   -0.001005	   -0.023417	    0.067746	    0.007931	    0.075677	    0.057292	    0.069845	    0.127137	    0.012502	    0.032841	    0.045343	   -0.005799	    0.022344	    0.016545	   -0.016159	    0.018262	    0.002103	   -0.004013	    0.019093	    0.015080	    0.004258	    0.007818	    0.012076	    0.091267	    0.100674	    0.191941
     6.600	0	0	    0	   -0.028450	   -0.013234	   -0.041685	    0.009315	    0.034571	    0.043886	    0.036356	    0.062705	    0.099061	    0.021662	    0.071314	    0.092976	   -0.020519	    0.017356	   -0.003163	   -0.063815	   -0.006231	   -0.070047	   -0.051174	   -0.016782	   -0.067956	    0.038478	    0.026487	    0.064965	   -0.016740	    0.004043	   -0.012697	    0.002495	    0.020473	    0.022969	    0.015201	    0.043636	    0.058837	   -0.005676	    0.024105	    0.018430	   -0.027742	    0.001779	   -0.025962	   -0.025105	    0.000316	   -0.024790	    0.065558	    0.013471	    0.079030	    0.057346	    0.070746	    0.128092	    0.015418	    0.034288	    0.049706	   -0.004067	    0.023868	    0.019801	   -0.014059	    0.019190	    0.005131	   -0.000869	    0.020564	    0.019694	    0.005272	    0.009187	    0.014459	    0.091341	    0.100246	    0.191587
     6.675	0	0	    0	   -0.026877	   -0.016841	   -0.043718	    0.008493	    0.035956	    0.044449	    0.035523	    0.065519	    0.101042	    0.022282	    0.071531	    0.093813	   -0.019925	    0.017998	   -0.001928	   -0.064584	   -0.004658	   -0.069242	   -0.057760	   -0.008577	   -0.066337	    0.040562	    0.022442	    0.063004	   -0.018727	    0.006669	   -0.012058	    0.003333	    0.021168	    0.024501	    0.015313	    0.044138	    0.059450	   -0.004828	    0.024327	    0.019499	   -0.027031	    0.001760	   -0.025271	   -0.024725	    0.000755	   -0.023970	    0.066300	    0.006564	    0.072864	    0.056812	    0.072273	    0.129085	    0.015714	    0.035517	    0.051231	   -0.003520	    0.024211	    0.020692	   -0.013804	    0.020404	    0.006600	    0.000238	    0.022254	    0.022492	    0.005494	    0.008177	    0.013671	    0.090527	    0.099203	    0.189729
     6.750	0	0	    0	   -0.017995	   -0.021567	   -0.039562	    0.012295	    0.033763	    0.046058	    0.037829	    0.064156	    0.101985	    0.027045	    0.068933	    0.095978	   -0.017552	    0.016701	   -0.000851	   -0.057484	   -0.009490	   -0.066974	   -0.046143	   -0.016924	   -0.063067	    0.044157	    0.020252	    0.064409	   -0.016549	    0.005134	   -0.011415	    0.004756	    0.020678	    0.025434	    0.015992	    0.044953	    0.060944	   -0.004446	    0.024863	    0.020417	   -0.026363	    0.003001	   -0.023362	   -0.022506	   -0.001339	   -0.023845	    0.064178	    0.011415	    0.075593	    0.057390	    0.071839	    0.129229	    0.015542	    0.035761	    0.051303	   -0.003910	    0.025201	    0.021292	   -0.013814	    0.020866	    0.007052	    0.000933	    0.022554	    0.023488	    0.005302	    0.007375	    0.012677	    0.087692	    0.102060	    0.189752
     6.825	0	0	    0	   -0.020165	   -0.023134	   -0.043299	    0.011094	    0.035538	    0.046631	    0.037940	    0.065145	    0.103085	    0.028424	    0.067481	    0.095905	   -0.017643	    0.018061	    0.000418	   -0.059796	   -0.007827	   -0.067623	   -0.049261	   -0.016078	   -0.065339	    0.042052	    0.022907	    0.064959	   -0.018831	    0.008247	   -0.010584	    0.003189	    0.022486	    0.025675	    0.016169	    0.045756	    0.061925	   -0.004278	    0.024923	    0.020646	   -0.026319	    0.003637	   -0.022682	   -0.022031	   -0.003473	   -0.025504	    0.060084	    0.014401	    0.074484	    0.055522	    0.072675	    0.128197	    0.016268	    0.035681	    0.051949	   -0.004969	    0.025263	    0.020294	   -0.013852	    0.021248	    0.007396	    0.001126	    0.023535	    0.024661	    0.005116	    0.008222	    0.013338	    0.084870	    0.103587	    0.188457
     6.900	0	0	    0	   -0.026641	   -0.016577	   -0.043218	    0.011580	    0.036794	    0.048374	    0.037393	    0.066956	    0.104349	    0.026798	    0.069679	    0.096477	   -0.019338	    0.020360	    0.001022	   -0.065047	   -0.005323	   -0.070370	   -0.052238	   -0.012765	   -0.065003	    0.041332	    0.023345	    0.064677	   -0.015731	    0.007119	   -0.008613	    0.001232	    0.021871	    0.023103	    0.016290	    0.045825	    0.062115	   -0.005212	    0.025538	    0.020327	   -0.027005	    0.004054	   -0.022952	   -0.025050	   -0.001562	   -0.026612	    0.063114	    0.009491	    0.072605	    0.057440	    0.070705	    0.128146	    0.014424	    0.036656	    0.051079	   -0.007907	    0.025023	    0.017116	   -0.014917	    0.021891	    0.006974	    0.000968	    0.024046	    0.025014	    0.005770	    0.008121	    0.013892	    0.089421	    0.100971	    0.190392
     6.975	0	0	    0	   -0.022055	   -0.022910	   -0.044966	    0.011017	    0.036377	    0.047394	    0.036847	    0.066506	    0.103353	    0.025408	    0.070991	    0.096399	   -0.017900	    0.018858	    0.000958	   -0.061557	   -0.009020	   -0.070577	   -0.052910	   -0.013832	   -0.066742	    0.039797	    0.021983	    0.061780	   -0.016847	    0.006743	   -0.010103	    0.000324	    0.021522	    0.021846	    0.015402	    0.046449	    0.061851	   -0.005667	    0.025690	    0.020023	   -0.026661	    0.004186	   -0.022475	   -0.023806	   -0.003995	   -0.027801	    0.062302	    0.010207	    0.072509	    0.055974	    0.070585	    0.126559	    0.013120	    0.036241	    0.049361	   -0.009660	    0.025033	    0.015373	   -0.016572	    0.022254	    0.005682	   -0.000613	    0.024511	    0.023898	    0.005219	    0.008232	    0.013451	    0.083532	    0.102744	    0.186276
     7.050	0	0	    0	   -0.025561	   -0.021192	   -0.046754	    0.007072	    0.038440	    0.045512	    0.035887	    0.065373	    0.101260	    0.025699	    0.070058	    0.095758	   -0.018134	    0.019931	    0.001797	   -0.061683	   -0.010128	   -0.071811	   -0.052939	   -0.015036	   -0.067976	    0.037697	    0.022767	    0.060465	   -0.017115	    0.006167	   -0.010948	   -0.000886	    0.021526	    0.020639	    0.014552	    0.046565	    0.061117	   -0.006847	    0.026313	    0.019466	   -0.028028	    0.005018	   -0.023010	   -0.025737	   -0.002916	   -0.028653	    0.057184	    0.013827	    0.071011	    0.055563	    0.070056	    0.125619	    0.011963	    0.035611	    0.047574	   -0.011684	    0.025479	    0.013795	   -0.017606	    0.022445	    0.004838	   -0.001374	    0.023944	    0.022570	    0.003407	    0.008819	    0.012226	    0.083728	    0.101782	    0.185510
     7.125	0	0	    0	   -0.024060	   -0.019880	   -0.043940	    0.006837	    0.038582	    0.045419	    0.035725	    0.065160	    0.100886	    0.023762	    0.071076	    0.094838	   -0.020210	    0.021152	    0.000942	   -0.061940	   -0.009819	   -0.071759	   -0.050429	   -0.018144	   -0.068573	    0.037144	    0.021600	    0.058744	   -0.020133	    0.008420	   -0.011713	   -0.002025	    0.021734	    0.019710	    0.013489	    0.046684	    0.060173	   -0.007616	    0.026239	    0.018623	   -0.027568	    0.004365	   -0.023203	   -0.025051	   -0.004447	   -0.029498	    0.055020	    0.012815	    0.067835	    0.051783	    0.071264	    0.123047	    0.010160	    0.035891	    0.046051	   -0.012752	    0.024812	    0.012060	   -0.019117	    0.022805	    0.003688	   -0.002990	    0.024397	    0.021408	    0.002007	    0.008521	    0.010529	    0.078936	    0.100679	    0.179615
     7.200	0	0	    0	   -0.027967	   -0.018681	   -0.046648	    0.004660	    0.038409	    0.043069	    0.034222	    0.066166	    0.100387	    0.025018	    0.070637	    0.095655	   -0.020256	    0.020432	    0.000176	   -0.064118	   -0.007371	   -0.071489	   -0.054379	   -0.016962	   -0.071340	    0.038091	    0.019698	    0.057789	   -0.021344	    0.007813	   -0.013531	   -0.003660	    0.022071	    0.018412	    0.012634	    0.046861	    0.059495	   -0.008548	    0.026385	    0.017837	   -0.029041	    0.005666	   -0.023375	   -0.027800	   -0.001481	   -0.029281	    0.056202	    0.008999	    0.065201	    0.052126	    0.069775	    0.121901	    0.008407	    0.036086	    0.044493	   -0.014628	    0.025277	    0.010649	   -0.020480	    0.023089	    0.002608	   -0.004505	    0.024923	    0.020417	    0.000781	    0.008645	    0.009425	    0.079807	    0.098685	    0.178492
     7.275	0	0	    0	   -0.029049	   -0.019995	   -0.049045	    0.005018	    0.035133	    0.040151	    0.032533	    0.065861	    0.098394	    0.021375	    0.073668	    0.095043	   -0.019453	    0.020508	    0.001055	   -0.062865	   -0.010493	   -0.073359	   -0.053324	   -0.019100	   -0.072424	    0.034528	    0.020490	    0.055018	   -0.023939	    0.009027	   -0.014912	   -0.004208	    0.021733	    0.017525	    0.011644	    0.047022	    0.058666	   -0.009808	    0.026492	    0.016684	   -0.030301	    0.006055	   -0.024246	   -0.025433	   -0.004876	   -0.030308	    0.054196	    0.011585	    0.065782	    0.048345	    0.071886	    0.120231	    0.006692	    0.036465	    0.043157	   -0.015496	    0.025080	    0.009584	   -0.021550	    0.023328	    0.001778	   -0.006068	    0.025600	    0.019532	   -0.001100	    0.009158	    0.008058	    0.073532	    0.108198	    0.181730
     7.350	0	0	    0	   -0.027814	   -0.020476	   -0.048290	    0.001210	    0.038049	    0.039260	    0.032070	    0.065019	    0.097089	    0.020114	    0.073697	    0.093811	   -0.020766	    0.022170	    0.001404	   -0.064895	   -0.006439	   -0.071334	   -0.052858	   -0.018488	   -0.071347	    0.032993	    0.021740	    0.054734	   -0.026247	    0.010627	   -0.015620	   -0.005552	    0.022041	    0.016489	    0.010550	    0.046609	    0.057159	   -0.011129	    0.026407	    0.015278	   -0.031102	    0.006700	   -0.024402	   -0.027409	   -0.002223	   -0.029632	    0.050424	    0.010385	    0.060809	    0.046604	    0.072959	    0.119563	    0.005567	    0.036333	    0.041899	   -0.017590	    0.025812	    0.008222	   -0.022817	    0.023573	    0.000756	   -0.007303	    0.025496	    0.018193	   -0.004186	    0.011379	    0.007193	    0.074053	    0.104233	    0.178287
     7.425	0	0	    0	   -0.024999	   -0.017051	   -0.042050	    0.003642	    0.036133	    0.039775	    0.030755	    0.066568	    0.097324	    0.024739	    0.071276	    0.096015	   -0.018770	    0.021514	    0.002744	   -0.064022	   -0.007202	   -0.071225	   -0.056898	   -0.014259	   -0.071156	    0.038427	    0.020443	    0.058870	   -0.026909	    0.010559	   -0.016350	   -0.005264	    0.021714	    0.016450	    0.012052	    0.046169	    0.058222	   -0.008726	    0.025995	    0.017269	   -0.031501	    0.006558	   -0.024944	   -0.029107	   -0.001174	   -0.030281	    0.056513	    0.009726	    0.066239	    0.046921	    0.071978	    0.118899	    0.004885	    0.036242	    0.041128	   -0.015415	    0.024814	    0.009399	   -0.021920	    0.022746	    0.000826	   -0.008379	    0.025774	    0.017394	   -0.003015	    0.008718	    0.005703	    0.074189	    0.103684	    0.177873
     7.500	0	0	    0	   -0.023026	   -0.014651	   -0.037677	    0.009790	    0.038507	    0.048296	    0.039587	    0.067141	    0.106728	    0.028640	    0.071382	    0.100022	   -0.016404	    0.023544	    0.007140	   -0.062372	   -0.006169	   -0.068541	   -0.052341	   -0.011121	   -0.063462	    0.036199	    0.026064	    0.062263	   -0.017225	    0.005506	   -0.011719	    0.001668	    0.023082	    0.024750	    0.016667	    0.047153	    0.063820	   -0.005210	    0.027454	    0.022244	   -0.027644	    0.006320	   -0.021324	   -0.025123	   -0.000791	   -0.025915	    0.060335	    0.011233	    0.071568	    0.052657	    0.071707	    0.124365	    0.014534	    0.037213	    0.051747	   -0.008159	    0.026147	    0.017988	   -0.016091	    0.023387	    0.007296	   -0.001535	    0.025826	    0.024291	    0.004943	    0.008533	    0.013475	    0.086305	    0.098698	    0.185003
     7.575	0	0	    0	   -0.016890	   -0.016347	   -0.033237	    0.015145	    0.037572	    0.052717	    0.042628	    0.068021	    0.110649	    0.028671	    0.074100	    0.102771	   -0.014173	    0.023255	    0.009082	   -0.056980	   -0.008206	   -0.065186	   -0.045291	   -0.014445	   -0.059736	    0.041386	    0.022090	    0.063477	   -0.014997	    0.007905	   -0.007092	    0.005440	    0.024012	    0.029452	    0.019074	    0.047665	    0.066739	   -0.003185	    0.028232	    0.025047	   -0.023622	    0.006887	   -0.016734	   -0.015071	   -0.004624	   -0.019695	    0.062858	    0.010375	    0.073233	    0.054779	    0.072981	    0.127760	    0.018369	    0.039075	    0.057444	   -0.004098	    0.026723	    0.022625	   -0.013261	    0.024554	    0.011293	    0.002518	    0.027771	    0.030289	    0.007468	    0.011002	    0.018470	    0.083995	    0.104282	    0.188276
     7.650	0	0	    0	   -0.021517	   -0.013823	   -0.035340	    0.016844	    0.039180	    0.056024	    0.045051	    0.068763	    0.113814	    0.028896	    0.074258	    0.103154	   -0.014653	    0.025444	    0.010791	   -0.050684	   -0.011995	   -0.062679	   -0.037702	   -0.020820	   -0.058522	    0.036373	    0.025142	    0.061516	   -0.014104	    0.009049	   -0.005056	    0.007734	    0.025225	    0.032959	    0.020431	    0.048541	    0.068972	   -0.002341	    0.029078	    0.026737	   -0.022627	    0.008063	   -0.014565	   -0.013039	   -0.006493	   -0.019532	    0.061161	    0.012786	    0.073947	    0.055595	    0.072842	    0.128437	    0.021250	    0.040120	    0.061370	   -0.001942	    0.028190	    0.026248	   -0.011549	    0.025491	    0.013942	    0.004995	    0.028176	    0.033171	    0.009012	    0.011503	    0.020514	    0.075822	    0.109066	    0.184888
     7.725	0	0	    0	   -0.020638	   -0.013274	   -0.033912	    0.016977	    0.039161	    0.056138	    0.044846	    0.069110	    0.113956	    0.028124	    0.076399	    0.104522	   -0.012154	    0.024195	    0.012042	   -0.048723	   -0.011934	   -0.060657	   -0.039862	   -0.020092	   -0.059954	    0.036511	    0.025437	    0.061948	   -0.015060	    0.010850	   -0.004210	    0.007821	    0.025808	    0.033629	    0.020630	    0.048919	    0.069550	   -0.001664	    0.029109	    0.027444	   -0.021683	    0.008866	   -0.012817	   -0.015115	   -0.002117	   -0.017232	    0.059805	    0.010741	    0.070546	    0.055521	    0.072618	    0.128138	    0.020954	    0.041035	    0.061990	   -0.002738	    0.029003	    0.026265	   -0.011168	    0.026216	    0.015048	    0.005405	    0.029046	    0.034452	    0.010204	    0.010706	    0.020910	    0.083819	    0.103908	    0.187726
     7.800	0	0	    0	   -0.016476	   -0.021283	   -0.037759	    0.015209	    0.040624	    0.055833	    0.044623	    0.069748	    0.114370	    0.032634	    0.071725	    0.104359	   -0.012274	    0.025141	    0.012867	   -0.053640	   -0.005168	   -0.058807	   -0.048298	   -0.011098	   -0.059396	    0.041236	    0.019224	    0.060461	   -0.011714	    0.006337	   -0.005377	    0.007960	    0.026559	    0.034519	    0.021853	    0.048584	    0.070437	   -0.001323	    0.029988	    0.028665	   -0.020574	    0.009001	   -0.011572	   -0.017156	   -0.001143	   -0.018299	    0.060838	    0.010404	    0.071241	    0.057611	    0.070887	    0.128498	    0.021363	    0.041002	    0.062365	   -0.001361	    0.028680	    0.027319	   -0.010713	    0.026803	    0.016090	    0.006615	    0.028459	    0.035074	    0.011794	    0.008823	    0.020617	    0.076336	    0.107635	    0.183971
     7.875	0	0	    0	   -0.025081	   -0.012076	   -0.037157	    0.016378	    0.039778	    0.056156	    0.046365	    0.069959	    0.116324	    0.029426	    0.076955	    0.106380	   -0.010209	    0.023808	    0.013599	   -0.053030	   -0.003685	   -0.056715	   -0.045273	   -0.014044	   -0.059317	    0.035678	    0.022984	    0.058663	   -0.014072	    0.010064	   -0.004008	    0.008733	    0.026669	    0.035403	    0.021351	    0.049897	    0.071248	   -0.001046	    0.030206	    0.029159	   -0.020859	    0.010169	   -0.010690	   -0.016687	   -0.002391	   -0.019078	    0.059230	    0.010894	    0.070124	    0.056283	    0.071932	    0.128214	    0.021577	    0.041433	    0.063010	   -0.002158	    0.029419	    0.027261	   -0.010652	    0.027340	    0.016688	    0.006635	    0.029285	    0.035920	    0.010075	    0.011051	    0.021126	    0.079582	    0.101245	    0.180827
     7.950	0	0	    0	   -0.018804	   -0.017177	   -0.035981	    0.013165	    0.043281	    0.056446	    0.045971	    0.070041	    0.116012	    0.029882	    0.076504	    0.106386	   -0.012368	    0.025747	    0.013379	   -0.055516	   -0.003127	   -0.058644	   -0.048626	   -0.010290	   -0.058916	    0.036130	    0.021240	    0.057371	   -0.013889	    0.009871	   -0.004018	    0.007739	    0.027060	    0.034799	    0.021093	    0.050095	    0.071188	   -0.001629	    0.030426	    0.028797	   -0.019630	    0.009011	   -0.010619	   -0.017618	   -0.000802	   -0.018420	    0.052029	    0.016746	    0.068775	    0.055914	    0.071963	    0.127877	    0.020449	    0.041725	    0.062174	   -0.003329	    0.029633	    0.026304	   -0.011152	    0.027501	    0.016349	    0.006172	    0.029562	    0.035734	    0.009852	    0.011333	    0.021185	    0.078846	    0.102418	    0.181264
     8.025	0	0	    0	   -0.014096	   -0.024891	   -0.038987	    0.014423	    0.039310	    0.053733	    0.044514	    0.070338	    0.114852	    0.032548	    0.073301	    0.105850	   -0.012106	    0.025725	    0.013620	   -0.051730	   -0.008497	   -0.060228	   -0.043096	   -0.017600	   -0.060696	    0.037665	    0.017002	    0.054667	   -0.016889	    0.011655	   -0.005234	    0.007042	    0.026609	    0.033651	    0.020641	    0.050226	    0.070867	   -0.002487	    0.030484	    0.027996	   -0.021029	    0.009654	   -0.011375	   -0.015247	   -0.006254	   -0.021501	    0.053486	    0.012649	    0.066135	    0.054148	    0.072812	    0.126960	    0.019117	    0.041647	    0.060764	   -0.005004	    0.029999	    0.024995	   -0.011863	    0.027933	    0.016069	    0.005186	    0.029849	    0.035035	    0.008489	    0.011207	    0.019696	    0.075603	    0.106537	    0.182140
     8.100	0	0	    0	   -0.018140	   -0.020275	   -0.038415	    0.013532	    0.040077	    0.053609	    0.043246	    0.070939	    0.114185	    0.032150	    0.074810	    0.106960	   -0.011276	    0.025005	    0.013729	   -0.053079	   -0.007423	   -0.060502	   -0.045200	   -0.016087	   -0.061288	    0.035456	    0.017925	    0.053381	   -0.017337	    0.011259	   -0.006078	    0.005497	    0.026921	    0.032418	    0.019549	    0.050036	    0.069586	   -0.003379	    0.030378	    0.026999	   -0.020920	    0.009223	   -0.011697	   -0.020408	    0.000122	   -0.020286	    0.054498	    0.007831	    0.062329	    0.055548	    0.069962	    0.125509	    0.017836	    0.041186	    0.059022	   -0.005574	    0.029070	    0.023496	   -0.012527	    0.027953	    0.015426	    0.004757	    0.029400	    0.034157	    0.007378	    0.010447	    0.017825	    0.076842	    0.101415	    0.178257
     8.175	0	0	    0	   -0.020577	   -0.017208	   -0.037785	    0.008906	    0.040828	    0.049734	    0.044474	    0.070261	    0.114735	    0.036757	    0.079512	    0.116269	   -0.008187	    0.028193	    0.020005	   -0.053518	   -0.004354	   -0.057872	   -0.047481	   -0.008977	   -0.056458	    0.033518	    0.018307	    0.051825	   -0.018777	    0.010266	   -0.008511	    0.004336	    0.026826	    0.031162	    0.020734	    0.049704	    0.070438	   -0.003364	    0.031203	    0.027839	   -0.022346	    0.009536	   -0.012810	   -0.017375	   -0.003823	   -0.021198	    0.053727	    0.012083	    0.065810	    0.052562	    0.073596	    0.126158	    0.016413	    0.041102	    0.057515	   -0.006004	    0.028915	    0.022911	   -0.010747	    0.027979	    0.017232	    0.003850	    0.029865	    0.033715	    0.006545	    0.010369	    0.016914	    0.073379	    0.105273	    0.178652
     8.250	0	0	    0	   -0.030260	   -0.010933	   -0.041193	    0.008425	    0.036755	    0.045180	    0.047128	    0.074004	    0.121131	    0.029614	    0.089288	    0.118903	   -0.013712	    0.035027	    0.021315	   -0.054628	   -0.004234	   -0.058862	   -0.045491	   -0.013017	   -0.058508	    0.027782	    0.021886	    0.049669	   -0.020133	    0.008420	   -0.011713	    0.003806	    0.025567	    0.029373	    0.021376	    0.053195	    0.074572	   -0.004096	    0.034619	    0.030523	   -0.020974	    0.010422	   -0.010551	   -0.021161	   -0.002276	   -0.023437	    0.055322	    0.004283	    0.059606	    0.052538	    0.072426	    0.124964	    0.015343	    0.040336	    0.055679	   -0.007924	    0.028906	    0.020982	   -0.011528	    0.030020	    0.018492	    0.003388	    0.030766	    0.034154	    0.005623	    0.010228	    0.015851	    0.071548	    0.103427	    0.174975
     8.325	0	0	    0	   -0.019255	   -0.021078	   -0.040332	    0.005572	    0.039578	    0.045150	    0.043359	    0.076349	    0.119708	    0.034981	    0.083403	    0.118384	   -0.011133	    0.033231	    0.022097	   -0.056718	   -0.000057	   -0.056776	   -0.051759	   -0.007563	   -0.059322	    0.033112	    0.014928	    0.048040	   -0.023011	    0.009755	   -0.013255	    0.002044	    0.026337	    0.028381	    0.020116	    0.054076	    0.074192	   -0.004660	    0.034466	    0.029806	   -0.022118	    0.012190	   -0.009928	   -0.021536	   -0.000701	   -0.022236	    0.047214	    0.011592	    0.058806	    0.051627	    0.070894	    0.122520	    0.012610	    0.041096	    0.053705	   -0.010653	    0.029056	    0.018403	   -0.013838	    0.029747	    0.015909	    0.002256	    0.030810	    0.033066	    0.004416	    0.010193	    0.014610	    0.072682	    0.100087	    0.172770
     8.400	0	0	    0	   -0.030145	   -0.015381	   -0.045527	    0.007325	    0.036521	    0.043846	    0.044927	    0.072319	    0.117246	    0.030225	    0.087313	    0.117538	   -0.015690	    0.034783	    0.019094	   -0.053317	   -0.008714	   -0.062032	   -0.042233	   -0.019807	   -0.062040	    0.024870	    0.021927	    0.046797	   -0.021836	    0.006709	   -0.015128	   -0.000048	    0.026333	    0.026285	    0.019329	    0.053918	    0.073247	   -0.006879	    0.035183	    0.028304	   -0.023476	    0.011723	   -0.011753	   -0.022309	   -0.001572	   -0.023881	    0.051131	    0.005509	    0.056640	    0.049354	    0.071465	    0.120819	    0.011058	    0.040448	    0.051506	   -0.012286	    0.028635	    0.016349	   -0.015695	    0.029674	    0.013979	    0.000425	    0.030767	    0.031192	    0.003002	    0.010873	    0.013875	    0.070497	    0.098856	    0.169353
     8.475	0	0	    0	   -0.028284	   -0.015061	   -0.043345	    0.003638	    0.037220	    0.040857	    0.041956	    0.074091	    0.116047	    0.032502	    0.086085	    0.118587	   -0.014445	    0.034344	    0.019899	   -0.059143	   -0.001479	   -0.060622	   -0.049784	   -0.012408	   -0.062192	    0.029793	    0.018673	    0.048467	   -0.026052	    0.009564	   -0.016488	   -0.002146	    0.026470	    0.024323	    0.017934	    0.054230	    0.072164	   -0.006514	    0.034745	    0.028231	   -0.024992	    0.012627	   -0.012365	   -0.024039	   -0.002795	   -0.026834	    0.049851	    0.009232	    0.059083	    0.047096	    0.072086	    0.119182	    0.008428	    0.040914	    0.049342	   -0.014018	    0.028608	    0.014590	   -0.016593	    0.029392	    0.012799	   -0.001521	    0.031446	    0.029926	    0.001607	    0.010081	    0.011688	    0.064566	    0.105673	    0.170239
     8.550	0	0	    0	   -0.021451	   -0.017749	   -0.039200	    0.007774	    0.038957	    0.046731	    0.047523	    0.073271	    0.120794	    0.035544	    0.085702	    0.121246	   -0.011424	    0.033752	    0.022328	   -0.053762	   -0.008428	   -0.062190	   -0.045738	   -0.014266	   -0.060003	    0.032939	    0.021573	    0.054512	   -0.020737	    0.005370	   -0.015367	    0.003206	    0.025480	    0.028686	    0.022259	    0.053566	    0.075826	   -0.002394	    0.035232	    0.032837	   -0.022884	    0.011078	   -0.011806	   -0.017738	   -0.003151	   -0.020889	    0.054702	    0.005984	    0.060686	    0.051383	    0.072102	    0.123485	    0.014682	    0.039417	    0.054099	   -0.006519	    0.027661	    0.021142	   -0.011993	    0.029112	    0.017120	    0.002197	    0.030297	    0.032494	    0.006576	    0.011193	    0.017768	    0.084158	    0.095345	    0.179503
     8.625	0	0	    0	   -0.027880	   -0.006859	   -0.034739	    0.012370	    0.041379	    0.053749	    0.049521	    0.076560	    0.126081	    0.035334	    0.087931	    0.123265	   -0.011260	    0.036646	    0.025386	   -0.054674	   -0.002926	   -0.057600	   -0.046340	   -0.008070	   -0.054410	    0.033617	    0.023029	    0.056646	   -0.017532	    0.007039	   -0.010493	    0.006703	    0.027464	    0.034167	    0.024971	    0.054286	    0.079257	   -0.000186	    0.035850	    0.035664	   -0.019445	    0.011517	   -0.007928	   -0.015467	   -0.002069	   -0.017536	    0.051578	    0.013334	    0.064912	    0.053527	    0.072396	    0.125923	    0.019965	    0.041885	    0.061850	   -0.002737	    0.029423	    0.026686	   -0.008101	    0.029987	    0.021886	    0.007887	    0.031453	    0.039340	    0.012091	    0.010930	    0.023021	    0.069620	    0.110537	    0.180156
     8.700	0	0	    0	   -0.020320	   -0.009275	   -0.029595	    0.016779	    0.040184	    0.056964	    0.051875	    0.077646	    0.129522	    0.035580	    0.090052	    0.125632	   -0.009603	    0.037503	    0.027900	   -0.047871	   -0.005961	   -0.053832	   -0.045869	   -0.007424	   -0.053293	    0.032077	    0.024283	    0.056360	   -0.014764	    0.007917	   -0.006847	    0.008767	    0.028087	    0.036854	    0.027214	    0.054624	    0.081838	    0.001344	    0.036915	    0.038259	   -0.016853	    0.011992	   -0.004862	   -0.013417	   -0.000949	   -0.014367	    0.060362	    0.005781	    0.066142	    0.055696	    0.070934	    0.126630	    0.022318	    0.042861	    0.065179	   -0.000537	    0.030034	    0.029496	   -0.006162	    0.031004	    0.024843	    0.010932	    0.032266	    0.043199	    0.014347	    0.012258	    0.026605	    0.082524	    0.101434	    0.183958
     8.775	0	0	    0	   -0.032440	    0.001080	   -0.031360	    0.017394	    0.040179	    0.057573	    0.054169	    0.076769	    0.130938	    0.035060	    0.091623	    0.126683	   -0.008439	    0.037509	    0.029070	   -0.046729	   -0.003814	   -0.050543	   -0.042863	   -0.007915	   -0.050778	    0.032686	    0.022358	    0.055044	   -0.013976	    0.007691	   -0.006285	    0.008848	    0.029180	    0.038027	    0.027094	    0.055337	    0.082431	    0.001410	    0.037991	    0.039401	   -0.015178	    0.012061	   -0.003116	   -0.013379	   -0.000745	   -0.014124	    0.055899	    0.008888	    0.064787	    0.055218	    0.071439	    0.126657	    0.023201	    0.043152	    0.066353	   -0.000495	    0.030535	    0.030041	   -0.005426	    0.031514	    0.026088	    0.011610	    0.033067	    0.044677	    0.015274	    0.012754	    0.028028	    0.087736	    0.093564	    0.181300
     8.850	0	0	    0	   -0.018962	   -0.014288	   -0.033251	    0.013937	    0.043801	    0.057738	    0.055328	    0.075993	    0.131320	    0.036801	    0.090640	    0.127441	   -0.008359	    0.038899	    0.030540	   -0.045902	   -0.004256	   -0.050158	   -0.042242	   -0.010367	   -0.052609	    0.032920	    0.020211	    0.053131	   -0.014440	    0.007226	   -0.007214	    0.009759	    0.028668	    0.038426	    0.027961	    0.055206	    0.083167	    0.001982	    0.038582	    0.040564	   -0.015011	    0.012698	   -0.002314	   -0.007918	   -0.004790	   -0.012708	    0.058340	    0.006133	    0.064473	    0.052714	    0.074386	    0.127100	    0.022326	    0.043479	    0.065804	   -0.000332	    0.030718	    0.030386	   -0.004830	    0.032062	    0.027232	    0.012139	    0.032312	    0.044452	    0.015095	    0.012573	    0.027668	    0.086121	    0.099649	    0.185770
     8.925	0	0	    0	   -0.019056	   -0.016392	   -0.035449	    0.016771	    0.040687	    0.057457	    0.054770	    0.076959	    0.131729	    0.037420	    0.089860	    0.127280	   -0.007469	    0.037439	    0.029969	   -0.046904	   -0.003310	   -0.050214	   -0.042695	   -0.010185	   -0.052881	    0.031553	    0.019874	    0.051427	   -0.014588	    0.007208	   -0.007380	    0.009704	    0.029451	    0.039155	    0.028094	    0.055562	    0.083655	    0.002369	    0.038821	    0.041190	   -0.014812	    0.012825	   -0.001987	   -0.010242	   -0.003700	   -0.013943	    0.058860	    0.004083	    0.062943	    0.054054	    0.072852	    0.126906	    0.022484	    0.043634	    0.066119	   -0.000151	    0.030522	    0.030370	   -0.004596	    0.032180	    0.027583	    0.011999	    0.033188	    0.045188	    0.014954	    0.013226	    0.028179	    0.080409	    0.102179	    0.182588
     9.000	0	0	    0	   -0.021675	   -0.011978	   -0.033653	    0.015568	    0.041926	    0.057494	    0.053497	    0.078702	    0.132199	    0.040008	    0.090575	    0.130583	   -0.005981	    0.038371	    0.032390	   -0.047534	   -0.002512	   -0.050046	   -0.043701	   -0.008144	   -0.051845	    0.030950	    0.021782	    0.052733	   -0.014334	    0.007375	   -0.006960	    0.008912	    0.029362	    0.038274	    0.027829	    0.055777	    0.083605	    0.002320	    0.038972	    0.041292	   -0.014907	    0.013166	   -0.001741	   -0.013424	   -0.003949	   -0.017373	    0.053678	    0.008852	    0.062530	    0.053588	    0.073282	    0.126870	    0.021807	    0.043366	    0.065172	   -0.000938	    0.030475	    0.029537	   -0.004563	    0.032512	    0.027949	    0.012440	    0.032776	    0.045216	    0.014573	    0.012971	    0.027543	    0.078807	    0.101503	    0.180310
     9.075	0	0	    0	   -0.022374	   -0.013325	   -0.035699	    0.013482	    0.042120	    0.055603	    0.054852	    0.077866	    0.132718	    0.040657	    0.091760	    0.132417	   -0.009193	    0.042923	    0.033730	   -0.047692	   -0.001685	   -0.049377	   -0.040120	   -0.008597	   -0.048717	    0.029717	    0.021049	    0.050766	   -0.016983	    0.008534	   -0.008448	    0.007951	    0.029165	    0.037116	    0.027305	    0.056244	    0.083549	    0.001235	    0.039397	    0.040632	   -0.015243	    0.012634	   -0.002609	   -0.009905	   -0.007357	   -0.017262	    0.054330	    0.006823	    0.061153	    0.052940	    0.071642	    0.124583	    0.020240	    0.043495	    0.063735	   -0.002337	    0.030392	    0.028055	   -0.004619	    0.032938	    0.028318	    0.011948	    0.033305	    0.045252	    0.013210	    0.013238	    0.026447	    0.076374	    0.103743	    0.180117
     9.150	0	0	    0	   -0.022090	   -0.019059	   -0.041149	    0.013513	    0.041731	    0.055244	    0.054778	    0.079686	    0.134464	    0.039493	    0.094930	    0.134422	   -0.007572	    0.041387	    0.033815	   -0.047578	   -0.001184	   -0.048762	   -0.045147	   -0.003152	   -0.048300	    0.031133	    0.016278	    0.047411	   -0.018120	    0.008441	   -0.009678	    0.005866	    0.029046	    0.034912	    0.027685	    0.056674	    0.084358	    0.000950	    0.040454	    0.041404	   -0.014711	    0.012369	   -0.002342	   -0.015166	   -0.001971	   -0.017138	    0.052303	    0.005571	    0.057874	    0.051122	    0.071903	    0.123025	    0.018365	    0.043327	    0.061692	   -0.004487	    0.030288	    0.025801	   -0.005748	    0.034020	    0.028272	    0.011468	    0.033307	    0.044776	    0.012407	    0.013193	    0.025600	    0.081042	    0.100221	    0.181263
     9.225	0	0	    0	   -0.024848	   -0.011805	   -0.036654	    0.014211	    0.039720	    0.053931	    0.053807	    0.078303	    0.132110	    0.041655	    0.091269	    0.132924	   -0.008072	    0.041847	    0.033774	   -0.046919	   -0.003632	   -0.050551	   -0.039865	   -0.012539	   -0.052404	    0.028172	    0.019577	    0.047749	   -0.019749	    0.010603	   -0.009145	    0.004126	    0.029447	    0.033572	    0.026504	    0.057583	    0.084086	   -0.000004	    0.041011	    0.041007	   -0.015390	    0.014328	   -0.001063	   -0.015616	    0.001315	   -0.014301	    0.047565	    0.011066	    0.058631	    0.049683	    0.071887	    0.121571	    0.016529	    0.042799	    0.059328	   -0.006681	    0.030608	    0.023927	   -0.007778	    0.033538	    0.025760	    0.010003	    0.033435	    0.043438	    0.011475	    0.013745	    0.025220	    0.074351	    0.106595	    0.180946
     9.300	0	0	    0	   -0.025782	   -0.014987	   -0.040770	    0.009748	    0.042407	    0.052155	    0.050988	    0.080271	    0.131259	    0.039045	    0.093951	    0.132996	   -0.008305	    0.041143	    0.032837	   -0.050903	    0.001017	   -0.049886	   -0.049263	   -0.003196	   -0.052459	    0.027767	    0.018044	    0.045811	   -0.019483	    0.008334	   -0.011149	    0.002929	    0.029002	    0.031931	    0.025810	    0.057149	    0.082959	   -0.000607	    0.040841	    0.040233	   -0.017201	    0.014925	   -0.002277	   -0.017059	   -0.000807	   -0.017866	    0.049203	    0.006813	    0.056017	    0.049414	    0.070398	    0.119812	    0.014528	    0.042848	    0.057376	   -0.007479	    0.029730	    0.022251	   -0.008588	    0.033321	    0.024733	    0.008385	    0.033583	    0.041968	    0.009453	    0.014359	    0.023812	    0.074879	    0.098826	    0.173705
     9.375	0	0	    0	   -0.021600	   -0.015926	   -0.037526	    0.009637	    0.042536	    0.052174	    0.050297	    0.079450	    0.129747	    0.038244	    0.094808	    0.133052	   -0.008353	    0.041380	    0.033027	   -0.055179	    0.006016	   -0.049163	   -0.047438	   -0.003082	   -0.050520	    0.030849	    0.016420	    0.047269	   -0.022276	    0.011559	   -0.010716	    0.001393	    0.028877	    0.030270	    0.025407	    0.056898	    0.082305	   -0.001950	    0.041069	    0.039119	   -0.017203	    0.013980	   -0.003224	   -0.018394	   -0.001395	   -0.019790	    0.048006	    0.010889	    0.058895	    0.046134	    0.073513	    0.119648	    0.012691	    0.042500	    0.055191	   -0.008896	    0.029389	    0.020493	   -0.010451	    0.033465	    0.023015	    0.007263	    0.033388	    0.040651	    0.009708	    0.012475	    0.022183	    0.069459	    0.102954	    0.172413
     9.450	0	0	    0	   -0.023821	   -0.019099	   -0.042921	    0.009769	    0.039041	    0.048810	    0.049555	    0.079058	    0.128613	    0.038394	    0.093230	    0.131624	   -0.011484	    0.041030	    0.029546	   -0.043420	   -0.009901	   -0.053321	   -0.039553	   -0.018072	   -0.057625	    0.024691	    0.018315	    0.043006	   -0.021624	    0.008368	   -0.013255	    0.000512	    0.028330	    0.028842	    0.023844	    0.057331	    0.081175	   -0.002886	    0.040829	    0.037943	   -0.018223	    0.013799	   -0.004424	   -0.016462	   -0.002699	   -0.019161	    0.036260	    0.014331	    0.050591	    0.046685	    0.071405	    0.118090	    0.011338	    0.042090	    0.053428	   -0.010899	    0.029724	    0.018824	   -0.011900	    0.033371	    0.021471	    0.005915	    0.033325	    0.039240	    0.008084	    0.013040	    0.021124	    0.076168	    0.095872	    0.172040
     9.525	0	0	    0	   -0.026640	   -0.015534	   -0.042175	    0.004938	    0.042321	    0.047258	    0.047307	    0.078317	    0.125624	    0.037076	    0.092742	    0.129818	   -0.010988	    0.040574	    0.029586	   -0.052060	   -0.002666	   -0.054726	   -0.047840	   -0.010870	   -0.058709	    0.028893	    0.017302	    0.046195	   -0.023202	    0.009530	   -0.013671	   -0.001320	    0.027915	    0.026595	    0.022817	    0.057510	    0.080327	   -0.003387	    0.040472	    0.037085	   -0.019812	    0.014402	   -0.005410	   -0.019899	   -0.001820	   -0.021719	    0.042648	    0.012324	    0.054971	    0.044741	    0.071526	    0.116267	    0.008800	    0.042233	    0.051033	   -0.012650	    0.029342	    0.016692	   -0.013362	    0.033053	    0.019692	    0.004177	    0.033334	    0.037511	    0.006728	    0.012661	    0.019389	    0.070065	    0.099839	    0.169904
     9.600	0	0	    0	   -0.014170	   -0.022540	   -0.036710	    0.011201	    0.040496	    0.051697	    0.051106	    0.077934	    0.129041	    0.039953	    0.092183	    0.132135	   -0.007542	    0.039525	    0.031983	   -0.053844	   -0.000106	   -0.053950	   -0.046004	   -0.010368	   -0.056372	    0.031301	    0.018579	    0.049880	   -0.021760	    0.008427	   -0.013333	    0.001950	    0.028065	    0.030016	    0.025661	    0.057424	    0.083084	   -0.000186	    0.040688	    0.040503	   -0.018479	    0.013420	   -0.005059	   -0.015772	   -0.001260	   -0.017032	    0.046946	    0.010544	    0.057490	    0.048025	    0.069693	    0.117717	    0.013710	    0.040440	    0.054150	   -0.006766	    0.028476	    0.021710	   -0.009761	    0.032089	    0.022328	    0.006188	    0.032628	    0.038816	    0.010069	    0.013034	    0.023103	    0.071342	    0.104386	    0.175728
     9.675	0	0	    0	   -0.020281	   -0.020319	   -0.040600	    0.013705	    0.042516	    0.056221	    0.053090	    0.080498	    0.133588	    0.039351	    0.094644	    0.133996	   -0.008509	    0.040911	    0.032403	   -0.049005	   -0.003882	   -0.052887	   -0.043599	   -0.009823	   -0.053422	    0.031195	    0.020321	    0.051516	   -0.016839	    0.008034	   -0.008805	    0.006096	    0.029422	    0.035518	    0.028190	    0.057934	    0.086124	    0.001805	    0.041254	    0.043059	   -0.015439	    0.013216	   -0.002222	   -0.012906	   -0.002002	   -0.014909	    0.054726	    0.009820	    0.064546	    0.049582	    0.072171	    0.121753	    0.018218	    0.043629	    0.061847	   -0.002399	    0.029918	    0.027520	   -0.006278	    0.032617	    0.026338	    0.010895	    0.033777	    0.044672	    0.013681	    0.014809	    0.028490	    0.077871	    0.101385	    0.179257
     9.750	0	0	    0	   -0.022710	   -0.011213	   -0.033923	    0.018593	    0.042185	    0.060778	    0.056123	    0.079464	    0.135587	    0.039470	    0.094495	    0.133965	   -0.008934	    0.042776	    0.033842	   -0.045035	   -0.004059	   -0.049094	   -0.035911	   -0.016290	   -0.052201	    0.029060	    0.022791	    0.051850	   -0.013266	    0.008246	   -0.005020	    0.007712	    0.030123	    0.037835	    0.029350	    0.058199	    0.087550	    0.002173	    0.042086	    0.044259	   -0.014584	    0.014960	    0.000375	   -0.010041	   -0.002117	   -0.012158	    0.060662	    0.004271	    0.064933	    0.049830	    0.072559	    0.122389	    0.019555	    0.044439	    0.063994	   -0.000698	    0.030413	    0.029715	   -0.005050	    0.032859	    0.027809	    0.013000	    0.034445	    0.047445	    0.016648	    0.013735	    0.030382	    0.080246	    0.096390	    0.176636
     9.825	0	0	    0	   -0.018311	   -0.019019	   -0.037330	    0.017474	    0.042720	    0.060194	    0.054467	    0.080443	    0.134910	    0.039958	    0.093418	    0.133376	   -0.008148	    0.040443	    0.032295	   -0.046863	   -0.004631	   -0.051494	   -0.042473	   -0.011225	   -0.053698	    0.029935	    0.019636	    0.049571	   -0.014903	    0.010946	   -0.003957	    0.006967	    0.030950	    0.037918	    0.029421	    0.058422	    0.087843	    0.001775	    0.042001	    0.043776	   -0.014503	    0.015297	    0.000794	   -0.009714	   -0.003912	   -0.013626	    0.056480	    0.007806	    0.064286	    0.050665	    0.070548	    0.121212	    0.019219	    0.044296	    0.063515	   -0.001278	    0.030335	    0.029057	   -0.005560	    0.033272	    0.027712	    0.012614	    0.035103	    0.047718	    0.015764	    0.014522	    0.030285	    0.076315	    0.097817	    0.174133
     9.900	0	0	    0	   -0.013777	   -0.023055	   -0.036832	    0.016960	    0.042439	    0.059400	    0.053110	    0.080883	    0.133993	    0.040207	    0.092481	    0.132688	   -0.007819	    0.039215	    0.031396	   -0.048409	   -0.005315	   -0.053724	   -0.042762	   -0.013291	   -0.056053	    0.031976	    0.016810	    0.048785	   -0.014587	    0.009647	   -0.004939	    0.006957	    0.030799	    0.037756	    0.029416	    0.058788	    0.088205	    0.002052	    0.042003	    0.044055	   -0.014063	    0.014444	    0.000381	   -0.016224	    0.003232	   -0.012993	    0.055392	    0.007473	    0.062864	    0.051342	    0.069073	    0.120415	    0.019009	    0.043513	    0.062522	   -0.001278	    0.030335	    0.029057	   -0.005890	    0.033576	    0.027686	    0.013173	    0.033926	    0.047099	    0.016136	    0.013829	    0.029965	    0.078364	    0.094610	    0.172975
