 [File Information]      		 [Data Line]	36
Measured Date	2024/05/21 113057
ID		Version	11.0
Name	tristan_12	[HeaderType]	11.0/11.0
Comment	
[Measurement Info.]
Holder Location	       0
Block Design	Off     
Pre.Rest Time	       0
Task Time	       0
Pos.Rest Time	       0
Loop	       0
Averaging	       1
Total Points	     815
[.INF File]
Filename	Cognitive1.INF
[Condition-1]
HV Switching	OFF
 R1 ,R2 ,R3 ,R4 ,R5 ,R6 ,R7 ,R8 
 120.00, 70.00,120.00,100.00, 90.00, 70.00,120.00,120.00
 Gain(X1,X4,X16,X64)
 R1 ,R2 ,R3 ,R4 ,R5 ,R6 ,R7 ,R8 
 1,1,1,1,1,1,1,1
[Analysis Condition]
Smoothed Type	None            
Smoothed Points	       0
Smoothed Loop	       0
Baseline Method	None            
Baseline location	
[Text Info.]
Output Mode	Continious      	Task No.		Data Type	Hb      
Time Range	    0.00	   61.05	Averaing	1
(1,3)(5,3)(5,7)(2,7)(2,4)(6,4)(6,8)(1,1)(3,3)(5,5)(7,7)(2,2)(4,4)(6,6)(8,8)(3,1)(3,5)(7,5)(7,2)(4,2)(4,6)(8,6)
         	     	     	     	    ch- 1	    ch- 1	    ch- 1	    ch- 2	    ch- 2	    ch- 2	    ch- 3	    ch- 3	    ch- 3	    ch- 4	    ch- 4	    ch- 4	    ch- 5	    ch- 5	    ch- 5	    ch- 6	    ch- 6	    ch- 6	    ch- 7	    ch- 7	    ch- 7	    ch- 8	    ch- 8	    ch- 8	    ch- 9	    ch- 9	    ch- 9	    ch-10	    ch-10	    ch-10	    ch-11	    ch-11	    ch-11	    ch-12	    ch-12	    ch-12	    ch-13	    ch-13	    ch-13	    ch-14	    ch-14	    ch-14	    ch-15	    ch-15	    ch-15	    ch-16	    ch-16	    ch-16	    ch-17	    ch-17	    ch-17	    ch-18	    ch-18	    ch-18	    ch-19	    ch-19	    ch-19	    ch-20	    ch-20	    ch-20	    ch-21	    ch-21	    ch-21	    ch-22	    ch-22	    ch-22
Time(sec)	Task	Mark	Count	    oxyHb   	  deoxyHb	  totalHb	    oxyHb   	  deoxyHb	  totalHb	    oxyHb   	  deoxyHb	  totalHb	    oxyHb   	  deoxyHb	  totalHb	    oxyHb   	  deoxyHb	  totalHb	    oxyHb   	  deoxyHb	  totalHb	    oxyHb   	  deoxyHb	  totalHb	    oxyHb   	  deoxyHb	  totalHb	    oxyHb   	  deoxyHb	  totalHb	    oxyHb   	  deoxyHb	  totalHb	    oxyHb   	  deoxyHb	  totalHb	    oxyHb   	  deoxyHb	  totalHb	    oxyHb   	  deoxyHb	  totalHb	    oxyHb   	  deoxyHb	  totalHb	    oxyHb   	  deoxyHb	  totalHb	    oxyHb   	  deoxyHb	  totalHb	    oxyHb   	  deoxyHb	  totalHb	    oxyHb   	  deoxyHb	  totalHb	    oxyHb   	  deoxyHb	  totalHb	    oxyHb   	  deoxyHb	  totalHb	    oxyHb   	  deoxyHb	  totalHb	    oxyHb   	  deoxyHb	  totalHb
     0.000	0	0Z	    0	    0.000000	    0.000000	    0.000000	    0.000000	    0.000000	    0.000000	    0.000000	    0.000000	    0.000000	    0.000000	    0.000000	    0.000000	    0.000000	    0.000000	    0.000000	    0.000000	    0.000000	    0.000000	    0.000000	    0.000000	    0.000000	    0.000000	    0.000000	    0.000000	    0.000000	    0.000000	    0.000000	    0.000000	    0.000000	    0.000000	    0.000000	    0.000000	    0.000000	    0.000000	    0.000000	    0.000000	    0.000000	    0.000000	    0.000000	    0.000000	    0.000000	    0.000000	    0.000000	    0.000000	    0.000000	    0.000000	    0.000000	    0.000000	    0.000000	    0.000000	    0.000000	    0.000000	    0.000000	    0.000000	    0.000000	    0.000000	    0.000000	    0.000000	    0.000000	    0.000000	    0.000000	    0.000000	    0.000000	    0.000000	    0.000000	    0.000000
     0.075	0	0	    0	   -0.005350	    0.000962	   -0.004388	   -0.000873	   -0.002524	   -0.003397	   -0.000786	   -0.000568	   -0.001354	   -0.000701	    0.000209	   -0.000491	   -0.000901	    0.001128	    0.000227	   -0.000171	   -0.001678	   -0.001849	    0.004974	   -0.003915	    0.001059	    0.000568	    0.002498	    0.003065	   -0.001079	    0.000223	   -0.000857	   -0.000773	    0.000334	   -0.000439	   -0.000796	   -0.000493	   -0.001289	   -0.001903	    0.001749	   -0.000154	   -0.001269	    0.000368	   -0.000901	   -0.001706	    0.001134	   -0.000571	    0.000358	    0.002035	    0.002393	    0.000511	    0.000358	    0.000869	   -0.004363	    0.001413	   -0.002949	   -0.000991	   -0.000499	   -0.001490	   -0.000518	   -0.000109	   -0.000627	   -0.002283	    0.001175	   -0.001108	   -0.001605	    0.000730	   -0.000875	   -0.002292	   -0.002742	   -0.005034
     0.150	0	0	    0	   -0.006916	   -0.007041	   -0.013957	   -0.009769	   -0.003035	   -0.012804	   -0.003616	   -0.000884	   -0.004499	   -0.000589	   -0.000736	   -0.001324	   -0.000886	   -0.000267	   -0.001153	   -0.002271	   -0.001988	   -0.004259	    0.011866	    0.002071	    0.013938	    0.003946	    0.003954	    0.007900	    0.000868	   -0.000337	    0.000532	    0.001394	   -0.000010	    0.001384	   -0.000936	   -0.001487	   -0.002423	   -0.000657	   -0.001070	   -0.001727	   -0.002220	   -0.001059	   -0.003280	    0.005714	    0.001291	    0.007005	    0.012829	    0.007991	    0.020820	    0.003714	    0.004173	    0.007887	   -0.006770	   -0.004382	   -0.011153	   -0.000539	   -0.001957	   -0.002496	   -0.001731	   -0.003103	   -0.004834	   -0.000722	   -0.002061	   -0.002782	   -0.004331	   -0.000964	   -0.005296	   -0.002694	   -0.000670	   -0.003364
     0.225	0	0	    0	    0.005543	   -0.011355	   -0.005812	   -0.024489	   -0.011271	   -0.035759	   -0.007495	   -0.005271	   -0.012766	    0.000454	    0.001428	    0.001882	   -0.004288	   -0.001678	   -0.005966	   -0.014086	   -0.005687	   -0.019772	    0.052641	    0.025071	    0.077712	    0.007333	    0.049176	    0.056510	    0.013397	    0.001569	    0.014965	    0.000719	   -0.001032	   -0.000313	   -0.005012	   -0.002422	   -0.007434	   -0.001067	   -0.001259	   -0.002326	   -0.004937	   -0.003770	   -0.008707	    0.025108	    0.012667	    0.037775	    0.015687	    0.058652	    0.074339	    0.088619	    0.031301	    0.119920	   -0.022431	   -0.011384	   -0.033816	   -0.002807	   -0.000283	   -0.003090	   -0.011494	    0.000971	   -0.010523	   -0.000753	    0.000986	    0.000233	   -0.017982	   -0.007476	   -0.025458	    0.066618	    0.046231	    0.112849
     0.300	0	0	    0	    0.004784	    0.005439	    0.010223	   -0.031538	   -0.017521	   -0.049059	   -0.009813	   -0.005497	   -0.015310	   -0.000394	    0.000765	    0.000372	   -0.007259	   -0.003748	   -0.011007	   -0.023303	   -0.011044	   -0.034347	    0.069960	    0.047315	    0.117275	    0.031068	    0.081101	    0.112168	    0.020678	    0.015180	    0.035858	    0.003915	    0.003102	    0.007017	   -0.002005	   -0.001779	   -0.003784	   -0.001564	   -0.002139	   -0.003703	   -0.007000	   -0.002934	   -0.009934	    0.046227	    0.031902	    0.078129	    0.096717	    0.131581	    0.228298	    0.132990	    0.114499	    0.247489	   -0.025484	   -0.019414	   -0.044898	   -0.005069	   -0.003981	   -0.009050	   -0.019727	   -0.011067	   -0.030794	   -0.002887	   -0.003958	   -0.006846	   -0.018831	   -0.017899	   -0.036730	    0.124432	    0.103921	    0.228353
     0.375	0	0	    0	    0.013264	    0.011262	    0.024526	   -0.034751	   -0.020901	   -0.055652	   -0.010588	   -0.006210	   -0.016797	   -0.000809	    0.000811	    0.000002	   -0.010427	   -0.005703	   -0.016130	   -0.028817	   -0.014968	   -0.043785	    0.083111	    0.067246	    0.150357	    0.079184	    0.144761	    0.223945	    0.028146	    0.023679	    0.051826	    0.006397	    0.005558	    0.011955	    0.000551	   -0.000434	    0.000117	   -0.000721	   -0.002119	   -0.002840	   -0.009207	   -0.002442	   -0.011649	    0.051497	    0.044506	    0.096003	    0.114432	    0.148296	    0.262728	    0.169761	    0.184292	    0.354054	   -0.028824	   -0.023172	   -0.051996	   -0.007883	   -0.005207	   -0.013090	   -0.027640	   -0.017938	   -0.045578	   -0.003844	   -0.005210	   -0.009054	   -0.022110	   -0.019277	   -0.041387	    0.135731	    0.156047	    0.291778
     0.450	0	0	    0	    0.011223	    0.018916	    0.030139	   -0.036937	   -0.022105	   -0.059042	   -0.009821	   -0.004966	   -0.014787	   -0.000967	    0.002334	    0.001366	   -0.015059	   -0.006414	   -0.021472	   -0.032313	   -0.018372	   -0.050684	    0.081361	    0.071197	    0.152558	    0.081410	    0.154663	    0.236073	    0.026143	    0.024303	    0.050446	    0.006813	    0.008687	    0.015500	    0.006314	    0.005897	    0.012211	   -0.001408	   -0.000705	   -0.002113	   -0.012072	   -0.001981	   -0.014052	    0.047753	    0.045975	    0.093728	    0.116808	    0.147477	    0.264285	    0.174644	    0.204586	    0.379229	   -0.028540	   -0.022922	   -0.051461	   -0.010647	   -0.007815	   -0.018462	   -0.034746	   -0.022658	   -0.057404	   -0.004834	   -0.008183	   -0.013017	   -0.021373	   -0.019778	   -0.041152	    0.146520	    0.158403	    0.304923
     0.525	0	0	    0	    0.008621	    0.019542	    0.028163	   -0.039151	   -0.023240	   -0.062391	   -0.011700	   -0.005012	   -0.016712	   -0.002037	    0.004123	    0.002086	   -0.017088	   -0.008292	   -0.025380	   -0.037207	   -0.019838	   -0.057044	    0.076467	    0.069420	    0.145888	    0.079817	    0.153774	    0.233590	    0.023389	    0.023888	    0.047277	    0.007051	    0.009017	    0.016069	    0.003204	    0.008007	    0.011211	   -0.000600	    0.000292	   -0.000308	   -0.016638	   -0.002237	   -0.018875	    0.040992	    0.042079	    0.083071	    0.111724	    0.146081	    0.257805	    0.174545	    0.209595	    0.384141	   -0.029390	   -0.021836	   -0.051225	   -0.013077	   -0.008795	   -0.021873	   -0.036981	   -0.025315	   -0.062296	   -0.008258	   -0.008537	   -0.016795	   -0.025809	   -0.019687	   -0.045496	    0.137641	    0.159011	    0.296651
     0.600	0	0	    0	    0.006367	    0.018158	    0.024525	   -0.041878	   -0.024001	   -0.065879	   -0.013169	   -0.005854	   -0.019024	   -0.003116	    0.004055	    0.000938	   -0.020330	   -0.008229	   -0.028559	   -0.040926	   -0.020701	   -0.061627	    0.070588	    0.071492	    0.142080	    0.078360	    0.149770	    0.228130	    0.020243	    0.022630	    0.042873	    0.005207	    0.008986	    0.014194	    0.002981	    0.007465	    0.010445	   -0.003734	    0.001772	   -0.001961	   -0.020121	   -0.003449	   -0.023570	    0.042608	    0.039721	    0.082329	    0.107476	    0.144806	    0.252281	    0.173559	    0.209099	    0.382658	   -0.031131	   -0.021474	   -0.052605	   -0.015173	   -0.009590	   -0.024763	   -0.039097	   -0.026133	   -0.065230	   -0.011076	   -0.009270	   -0.020346	   -0.028789	   -0.019004	   -0.047792	    0.137404	    0.155850	    0.293254
     0.675	0	0	    0	    0.003728	    0.018172	    0.021899	   -0.039741	   -0.025198	   -0.064939	   -0.012078	   -0.005993	   -0.018071	   -0.003674	    0.004025	    0.000351	   -0.021450	   -0.009084	   -0.030535	   -0.037801	   -0.022783	   -0.060584	    0.079956	    0.065636	    0.145592	    0.077008	    0.145901	    0.222909	    0.019599	    0.021520	    0.041119	    0.008064	    0.008371	    0.016435	    0.003522	    0.007144	    0.010665	   -0.004214	    0.000953	   -0.003261	   -0.018568	   -0.005665	   -0.024233	    0.045679	    0.037940	    0.083620	    0.108317	    0.138393	    0.246710	    0.172859	    0.206266	    0.379126	   -0.030107	   -0.021659	   -0.051765	   -0.008132	   -0.010917	   -0.019050	   -0.032266	   -0.027280	   -0.059546	   -0.010390	   -0.010107	   -0.020496	   -0.027228	   -0.019114	   -0.046342	    0.144144	    0.149961	    0.294105
     0.750	0	0	    0	    0.008134	    0.016909	    0.025043	   -0.036943	   -0.023178	   -0.060121	   -0.009941	   -0.005231	   -0.015172	   -0.000759	    0.003720	    0.002960	   -0.016042	   -0.009285	   -0.025327	   -0.032672	   -0.019392	   -0.052064	    0.079521	    0.075345	    0.154866	    0.078623	    0.144240	    0.222863	    0.024945	    0.020928	    0.045873	    0.012095	    0.010266	    0.022361	    0.005160	    0.006518	    0.011678	    0.003588	    0.000784	    0.004372	   -0.007215	   -0.002699	   -0.009913	    0.046901	    0.044774	    0.091675	    0.109477	    0.137361	    0.246838	    0.176647	    0.206217	    0.382864	   -0.024079	   -0.019781	   -0.043861	   -0.003037	   -0.008077	   -0.011113	   -0.025764	   -0.023666	   -0.049430	    0.001520	   -0.006997	   -0.005477	   -0.018673	   -0.016424	   -0.035097	    0.146242	    0.149450	    0.295692
     0.825	0	0	    0	    0.010187	    0.017340	    0.027527	   -0.036577	   -0.022937	   -0.059514	   -0.009305	   -0.005904	   -0.015209	   -0.000255	    0.004890	    0.004636	   -0.014404	   -0.006809	   -0.021213	   -0.031382	   -0.018533	   -0.049915	    0.083902	    0.071521	    0.155422	    0.079398	    0.144325	    0.223723	    0.024768	    0.021905	    0.046673	    0.012268	    0.010696	    0.022964	    0.004194	    0.005400	    0.009594	    0.006895	    0.002463	    0.009358	   -0.005045	    0.000037	   -0.005008	    0.050789	    0.040918	    0.091707	    0.108952	    0.136890	    0.245842	    0.177426	    0.207284	    0.384710	   -0.022469	   -0.019429	   -0.041898	   -0.003316	   -0.006182	   -0.009498	   -0.024803	   -0.022207	   -0.047010	    0.004680	   -0.005105	   -0.000425	   -0.014835	   -0.015792	   -0.030627	    0.141900	    0.152198	    0.294098
     0.900	0	0	    0	    0.008294	    0.018465	    0.026759	   -0.037000	   -0.023428	   -0.060427	   -0.010182	   -0.006160	   -0.016342	   -0.000720	    0.004134	    0.003414	   -0.014899	   -0.007180	   -0.022079	   -0.033324	   -0.019130	   -0.052454	    0.081900	    0.070267	    0.152166	    0.078121	    0.142644	    0.220765	    0.023929	    0.021248	    0.045177	    0.011119	    0.010778	    0.021897	    0.003100	    0.004903	    0.008004	    0.006545	    0.002643	    0.009188	   -0.006557	    0.000256	   -0.006301	    0.048804	    0.038265	    0.087069	    0.106150	    0.137474	    0.243625	    0.179148	    0.203843	    0.382992	   -0.022649	   -0.018872	   -0.041521	   -0.003628	   -0.007294	   -0.010922	   -0.025738	   -0.022078	   -0.047816	    0.002398	   -0.002713	   -0.000315	   -0.016105	   -0.015706	   -0.031811	    0.142727	    0.147480	    0.290207
     0.975	0	0	    0	    0.009665	    0.017070	    0.026735	   -0.036750	   -0.023501	   -0.060251	   -0.010741	   -0.005995	   -0.016736	   -0.000706	    0.003170	    0.002464	   -0.015406	   -0.007511	   -0.022918	   -0.033003	   -0.019681	   -0.052684	    0.083230	    0.072768	    0.155998	    0.079145	    0.142193	    0.221337	    0.023581	    0.020687	    0.044268	    0.012566	    0.009367	    0.021933	    0.003269	    0.003734	    0.007003	    0.006143	    0.002786	    0.008929	   -0.006646	   -0.000637	   -0.007282	    0.047843	    0.040928	    0.088771	    0.108214	    0.136478	    0.244692	    0.178389	    0.205321	    0.383710	   -0.023624	   -0.018176	   -0.041801	   -0.002758	   -0.007674	   -0.010432	   -0.025030	   -0.022389	   -0.047418	    0.002981	   -0.003972	   -0.000990	   -0.016898	   -0.015424	   -0.032321	    0.144222	    0.146259	    0.290481
     1.050	0	0	    0	    0.009580	    0.016612	    0.026193	   -0.037370	   -0.023446	   -0.060816	   -0.010313	   -0.006971	   -0.017284	   -0.000905	    0.002907	    0.002003	   -0.014629	   -0.008395	   -0.023024	   -0.033936	   -0.019413	   -0.053349	    0.081850	    0.071239	    0.153089	    0.079804	    0.142171	    0.221975	    0.023153	    0.020231	    0.043384	    0.011039	    0.010343	    0.021382	    0.000645	    0.003984	    0.004629	    0.007433	    0.002105	    0.009537	   -0.007116	   -0.000088	   -0.007203	    0.047136	    0.042726	    0.089861	    0.105854	    0.135791	    0.241645	    0.179094	    0.205146	    0.384240	   -0.022843	   -0.019042	   -0.041885	   -0.004217	   -0.007046	   -0.011263	   -0.025759	   -0.021506	   -0.047265	    0.002514	   -0.003373	   -0.000858	   -0.016856	   -0.014515	   -0.031371	    0.143112	    0.146852	    0.289964
     1.125	0	0	    0	    0.007332	    0.017463	    0.024795	   -0.038260	   -0.023834	   -0.062094	   -0.011400	   -0.007842	   -0.019242	   -0.002035	    0.002586	    0.000550	   -0.016291	   -0.007855	   -0.024147	   -0.035090	   -0.020371	   -0.055461	    0.080872	    0.066225	    0.147097	    0.078850	    0.140176	    0.219026	    0.022386	    0.019440	    0.041827	    0.009750	    0.009440	    0.019190	   -0.000961	    0.002381	    0.001420	    0.004438	    0.003466	    0.007904	   -0.009865	    0.000008	   -0.009857	    0.047406	    0.038221	    0.085628	    0.102275	    0.136556	    0.238831	    0.177625	    0.204514	    0.382139	   -0.024573	   -0.018282	   -0.042855	   -0.006782	   -0.006501	   -0.013283	   -0.027627	   -0.021196	   -0.048823	    0.000789	   -0.003652	   -0.002863	   -0.019264	   -0.014283	   -0.033546	    0.141193	    0.145668	    0.286861
     1.200	0	0	    0	    0.004702	    0.018677	    0.023379	   -0.040446	   -0.023125	   -0.063570	   -0.013402	   -0.007030	   -0.020432	   -0.003671	    0.002492	   -0.001180	   -0.017400	   -0.008690	   -0.026090	   -0.038049	   -0.020339	   -0.058388	    0.075591	    0.067960	    0.143551	    0.077059	    0.141538	    0.218597	    0.019903	    0.019754	    0.039657	    0.007462	    0.009715	    0.017177	   -0.002489	    0.001850	   -0.000638	    0.003522	    0.002446	    0.005968	   -0.013192	   -0.000255	   -0.013446	    0.040187	    0.042185	    0.082372	    0.103640	    0.132575	    0.236214	    0.177034	    0.204130	    0.381164	   -0.025664	   -0.019260	   -0.044924	   -0.008423	   -0.007419	   -0.015841	   -0.029613	   -0.021564	   -0.051177	   -0.002916	   -0.003498	   -0.006414	   -0.022122	   -0.014406	   -0.036528	    0.138992	    0.146280	    0.285273
     1.275	0	0	    0	    0.003560	    0.017646	    0.021206	   -0.041935	   -0.023193	   -0.065128	   -0.014468	   -0.006825	   -0.021293	   -0.004959	    0.002613	   -0.002346	   -0.019631	   -0.008221	   -0.027853	   -0.041160	   -0.020191	   -0.061352	    0.074889	    0.066462	    0.141351	    0.076497	    0.141385	    0.217882	    0.020028	    0.018182	    0.038211	    0.006200	    0.009361	    0.015561	   -0.003397	    0.001111	   -0.002285	    0.000514	    0.003056	    0.003570	   -0.016040	   -0.001192	   -0.017232	    0.040836	    0.038516	    0.079352	    0.097358	    0.136766	    0.234124	    0.177127	    0.202753	    0.379880	   -0.027056	   -0.019122	   -0.046178	   -0.011339	   -0.006973	   -0.018312	   -0.031952	   -0.021729	   -0.053682	   -0.005665	   -0.003514	   -0.009178	   -0.023429	   -0.017331	   -0.040760	    0.134337	    0.145792	    0.280130
     1.350	0	0	    0	    0.003206	    0.015413	    0.018619	   -0.042931	   -0.023144	   -0.066075	   -0.015526	   -0.006894	   -0.022420	   -0.006282	    0.002149	   -0.004133	   -0.021051	   -0.008539	   -0.029590	   -0.042853	   -0.021231	   -0.064083	    0.070060	    0.065660	    0.135720	    0.076860	    0.140347	    0.217207	    0.017025	    0.019123	    0.036149	    0.005149	    0.009025	    0.014174	   -0.004241	    0.000363	   -0.003879	   -0.001635	    0.002846	    0.001212	   -0.019085	   -0.001162	   -0.020248	    0.038716	    0.040851	    0.079566	    0.100218	    0.131118	    0.231336	    0.176481	    0.202726	    0.379208	   -0.028537	   -0.019072	   -0.047609	   -0.012629	   -0.007806	   -0.020435	   -0.034444	   -0.022064	   -0.056508	   -0.009645	   -0.003811	   -0.013456	   -0.028024	   -0.014857	   -0.042881	    0.135530	    0.142694	    0.278225
     1.425	0	0	    0	    0.002375	    0.016579	    0.018954	   -0.043364	   -0.023660	   -0.067023	   -0.016924	   -0.006750	   -0.023674	   -0.007260	    0.001820	   -0.005440	   -0.022941	   -0.008243	   -0.031184	   -0.045571	   -0.021026	   -0.066598	    0.070512	    0.061751	    0.132263	    0.076071	    0.142110	    0.218181	    0.016275	    0.019076	    0.035351	    0.003510	    0.008423	    0.011933	   -0.005239	    0.000104	   -0.005135	   -0.003045	    0.002250	   -0.000794	   -0.021207	   -0.002100	   -0.023308	    0.037096	    0.039785	    0.076881	    0.103075	    0.127386	    0.230461	    0.175794	    0.202752	    0.378546	   -0.030156	   -0.018962	   -0.049118	   -0.014812	   -0.008126	   -0.022938	   -0.036479	   -0.022812	   -0.059291	   -0.012291	   -0.004444	   -0.016735	   -0.030591	   -0.013746	   -0.044337	    0.136949	    0.143317	    0.280267
     1.500	0	0	    0	    0.000586	    0.015152	    0.015738	   -0.043407	   -0.024120	   -0.067528	   -0.016487	   -0.007423	   -0.023910	   -0.008120	    0.002020	   -0.006100	   -0.024047	   -0.009087	   -0.033135	   -0.046138	   -0.022089	   -0.068227	    0.068396	    0.063055	    0.131451	    0.076151	    0.139316	    0.215467	    0.016690	    0.016766	    0.033457	    0.003878	    0.008303	    0.012181	   -0.004991	    0.000195	   -0.004797	   -0.004736	    0.001301	   -0.003435	   -0.022790	   -0.003650	   -0.026440	    0.038646	    0.035060	    0.073705	    0.097793	    0.130750	    0.228543	    0.175058	    0.202138	    0.377196	   -0.028439	   -0.020843	   -0.049283	   -0.011391	   -0.009432	   -0.020823	   -0.032893	   -0.024116	   -0.057009	   -0.013097	   -0.007019	   -0.020117	   -0.029668	   -0.017810	   -0.047478	    0.133793	    0.143533	    0.277326
     1.575	0	0	    0	    0.004992	    0.013716	    0.018708	   -0.038646	   -0.023566	   -0.062212	   -0.012447	   -0.007121	   -0.019568	   -0.005554	    0.000428	   -0.005126	   -0.020718	   -0.009699	   -0.030416	   -0.037835	   -0.021989	   -0.059824	    0.083617	    0.061809	    0.145425	    0.077812	    0.139092	    0.216903	    0.020316	    0.017651	    0.037967	    0.009410	    0.008327	    0.017737	   -0.000998	    0.000540	   -0.000458	   -0.000859	    0.001167	    0.000309	   -0.011951	   -0.002442	   -0.014393	    0.046859	    0.038625	    0.085484	    0.102434	    0.131288	    0.233721	    0.178180	    0.201887	    0.380067	   -0.024386	   -0.019600	   -0.043986	   -0.004644	   -0.007230	   -0.011874	   -0.024463	   -0.021600	   -0.046063	   -0.001987	   -0.005677	   -0.007663	   -0.020671	   -0.016342	   -0.037012	    0.138214	    0.145620	    0.283834
     1.650	0	0	    0	    0.008191	    0.014626	    0.022817	   -0.037492	   -0.022931	   -0.060423	   -0.011751	   -0.006233	   -0.017985	   -0.002167	    0.000921	   -0.001246	   -0.016770	   -0.008469	   -0.025239	   -0.036054	   -0.020719	   -0.056773	    0.085793	    0.064264	    0.150057	    0.081497	    0.137478	    0.218976	    0.019601	    0.021184	    0.040785	    0.010148	    0.009709	    0.019857	   -0.000160	    0.000654	    0.000494	    0.005644	    0.002344	    0.007988	   -0.008657	    0.001344	   -0.007313	    0.048444	    0.040288	    0.088733	    0.103625	    0.131764	    0.235389	    0.179122	    0.203184	    0.382306	   -0.022246	   -0.017668	   -0.039914	   -0.003467	   -0.006213	   -0.009680	   -0.023306	   -0.020042	   -0.043348	    0.002128	   -0.001800	    0.000328	   -0.017056	   -0.013151	   -0.030207	    0.146979	    0.140962	    0.287941
     1.725	0	0	    0	    0.006163	    0.016564	    0.022727	   -0.038403	   -0.022469	   -0.060871	   -0.012537	   -0.006169	   -0.018705	   -0.003649	    0.001743	   -0.001907	   -0.017021	   -0.007712	   -0.024733	   -0.038274	   -0.019202	   -0.057475	    0.079869	    0.067097	    0.146966	    0.080234	    0.140061	    0.220295	    0.020844	    0.019501	    0.040345	    0.009256	    0.009923	    0.019179	   -0.001736	    0.000724	   -0.001013	    0.004430	    0.003588	    0.008018	   -0.008536	    0.000861	   -0.007676	    0.046830	    0.036366	    0.083195	    0.098840	    0.132892	    0.231732	    0.180650	    0.203037	    0.383688	   -0.022282	   -0.018112	   -0.040395	   -0.005469	   -0.005634	   -0.011103	   -0.024669	   -0.020162	   -0.044831	    0.001884	   -0.002534	   -0.000650	   -0.017923	   -0.013393	   -0.031315	    0.139514	    0.143431	    0.282946
     1.800	0	0	    0	    0.005470	    0.016406	    0.021876	   -0.039231	   -0.022374	   -0.061605	   -0.012678	   -0.006712	   -0.019390	   -0.005170	    0.001293	   -0.003877	   -0.018518	   -0.007337	   -0.025855	   -0.039236	   -0.019237	   -0.058473	    0.078045	    0.064266	    0.142311	    0.080118	    0.139081	    0.219199	    0.020258	    0.018972	    0.039230	    0.008309	    0.010195	    0.018505	   -0.001529	   -0.000003	   -0.001532	    0.002381	    0.003098	    0.005478	   -0.010054	    0.000900	   -0.009154	    0.046769	    0.037137	    0.083906	    0.097202	    0.131525	    0.228727	    0.179382	    0.203921	    0.383303	   -0.022309	   -0.019167	   -0.041476	   -0.005088	   -0.006238	   -0.011326	   -0.025353	   -0.020194	   -0.045547	    0.000160	   -0.003332	   -0.003172	   -0.018281	   -0.014013	   -0.032293	    0.137911	    0.146065	    0.283977
     1.875	0	0	    0	    0.007120	    0.013682	    0.020802	   -0.039213	   -0.021783	   -0.060996	   -0.013137	   -0.005889	   -0.019026	   -0.004298	    0.000194	   -0.004104	   -0.017053	   -0.008405	   -0.025459	   -0.038969	   -0.019395	   -0.058365	    0.076044	    0.065640	    0.141684	    0.080133	    0.138231	    0.218364	    0.020255	    0.019009	    0.039265	    0.008380	    0.010626	    0.019006	   -0.002312	    0.000448	   -0.001864	    0.004066	    0.002352	    0.006418	   -0.009777	    0.001284	   -0.008493	    0.045301	    0.038656	    0.083957	    0.101788	    0.127089	    0.228876	    0.180802	    0.203383	    0.384184	   -0.022920	   -0.017307	   -0.040227	   -0.005323	   -0.006002	   -0.011325	   -0.025484	   -0.020231	   -0.045715	   -0.000290	   -0.001513	   -0.001803	   -0.017410	   -0.014834	   -0.032244	    0.145231	    0.138222	    0.283454
     1.950	0	0	    0	    0.006300	    0.014726	    0.021026	   -0.039733	   -0.022120	   -0.061853	   -0.013284	   -0.006370	   -0.019654	   -0.004416	    0.000119	   -0.004297	   -0.018221	   -0.007879	   -0.026100	   -0.040909	   -0.019563	   -0.060472	    0.074289	    0.067167	    0.141456	    0.080337	    0.139778	    0.220115	    0.020142	    0.018059	    0.038201	    0.007501	    0.009932	    0.017433	   -0.002599	   -0.000221	   -0.002820	    0.003446	    0.002387	    0.005833	   -0.011812	    0.002070	   -0.009742	    0.044563	    0.036491	    0.081054	    0.103779	    0.127621	    0.231400	    0.180987	    0.204227	    0.385214	   -0.023566	   -0.017212	   -0.040778	   -0.007316	   -0.006294	   -0.013610	   -0.027655	   -0.020566	   -0.048221	   -0.001020	   -0.002045	   -0.003064	   -0.018712	   -0.014812	   -0.033524	    0.137288	    0.142398	    0.279686
     2.025	0	0	    0	    0.004160	    0.015127	    0.019287	   -0.040999	   -0.022474	   -0.063473	   -0.014996	   -0.005916	   -0.020912	   -0.007016	    0.000898	   -0.006118	   -0.019845	   -0.007640	   -0.027485	   -0.043465	   -0.019949	   -0.063414	    0.074162	    0.065907	    0.140070	    0.079653	    0.139029	    0.218683	    0.018725	    0.018216	    0.036941	    0.006196	    0.010146	    0.016342	   -0.003661	   -0.000463	   -0.004123	    0.000934	    0.002746	    0.003680	   -0.013995	    0.000810	   -0.013185	    0.039002	    0.040736	    0.079738	    0.102987	    0.128357	    0.231344	    0.180193	    0.204234	    0.384427	   -0.025835	   -0.016504	   -0.042339	   -0.009077	   -0.006687	   -0.015764	   -0.029880	   -0.021201	   -0.051080	   -0.004595	   -0.002220	   -0.006815	   -0.021418	   -0.014485	   -0.035903	    0.135041	    0.141845	    0.276885
     2.100	0	0	    0	    0.001628	    0.016503	    0.018131	   -0.041875	   -0.022290	   -0.064165	   -0.015660	   -0.006547	   -0.022207	   -0.008066	    0.000774	   -0.007292	   -0.021710	   -0.007907	   -0.029616	   -0.045243	   -0.020435	   -0.065678	    0.075082	    0.060748	    0.135829	    0.077466	    0.140650	    0.218116	    0.015977	    0.019348	    0.035325	    0.005869	    0.008995	    0.014864	   -0.004449	   -0.000481	   -0.004930	   -0.002580	    0.003316	    0.000736	   -0.017496	    0.000613	   -0.016882	    0.040298	    0.035701	    0.075998	    0.099373	    0.130378	    0.229751	    0.179372	    0.204620	    0.383992	   -0.026346	   -0.018313	   -0.044659	   -0.011213	   -0.007279	   -0.018492	   -0.032788	   -0.021335	   -0.054123	   -0.007555	   -0.003820	   -0.011375	   -0.024334	   -0.014584	   -0.038918	    0.134573	    0.139985	    0.274558
     2.175	0	0	    0	    0.001404	    0.015419	    0.016822	   -0.044113	   -0.021360	   -0.065473	   -0.016681	   -0.006164	   -0.022845	   -0.008585	    0.000658	   -0.007927	   -0.023712	   -0.007687	   -0.031399	   -0.049303	   -0.018976	   -0.068279	    0.064837	    0.066781	    0.131618	    0.076946	    0.139429	    0.216374	    0.014238	    0.019276	    0.033514	    0.003553	    0.010006	    0.013559	   -0.006009	    0.000262	   -0.005747	   -0.003994	    0.003028	   -0.000966	   -0.020303	   -0.000035	   -0.020338	    0.035788	    0.035979	    0.071767	    0.097270	    0.130967	    0.228236	    0.177779	    0.205248	    0.383027	   -0.028644	   -0.016910	   -0.045554	   -0.013550	   -0.006806	   -0.020357	   -0.034817	   -0.022055	   -0.056872	   -0.011415	   -0.003270	   -0.014685	   -0.026567	   -0.014846	   -0.041413	    0.136671	    0.135710	    0.272382
     2.250	0	0	    0	   -0.000753	    0.015123	    0.014371	   -0.045725	   -0.021547	   -0.067272	   -0.017811	   -0.006042	   -0.023853	   -0.009900	    0.000638	   -0.009262	   -0.025268	   -0.008371	   -0.033639	   -0.051181	   -0.020396	   -0.071576	    0.063308	    0.064713	    0.128020	    0.077545	    0.137621	    0.215166	    0.013611	    0.018073	    0.031684	    0.002353	    0.009003	    0.011356	   -0.006121	   -0.000717	   -0.006838	   -0.005708	    0.002436	   -0.003273	   -0.024064	   -0.000038	   -0.024102	    0.030683	    0.039271	    0.069954	    0.100031	    0.125011	    0.225042	    0.176699	    0.205494	    0.382193	   -0.030674	   -0.017189	   -0.047863	   -0.013787	   -0.008543	   -0.022330	   -0.035695	   -0.023096	   -0.058791	   -0.014262	   -0.004460	   -0.018722	   -0.029310	   -0.015766	   -0.045076	    0.133235	    0.136603	    0.269839
     2.325	0	0	    0	   -0.000454	    0.014847	    0.014392	   -0.041152	   -0.022754	   -0.063906	   -0.015024	   -0.006411	   -0.021435	   -0.009292	   -0.000231	   -0.009523	   -0.024872	   -0.008794	   -0.033666	   -0.045209	   -0.021376	   -0.066585	    0.076622	    0.062946	    0.139568	    0.076582	    0.138845	    0.215426	    0.015065	    0.018267	    0.033332	    0.007644	    0.008576	    0.016220	   -0.002068	   -0.000820	   -0.002888	   -0.004456	    0.001965	   -0.002491	   -0.017034	   -0.002692	   -0.019725	    0.042869	    0.034713	    0.077582	    0.101288	    0.126893	    0.228181	    0.179481	    0.202985	    0.382467	   -0.025465	   -0.019317	   -0.044782	   -0.005778	   -0.007966	   -0.013744	   -0.026978	   -0.023078	   -0.050056	   -0.007044	   -0.006173	   -0.013217	   -0.023118	   -0.018265	   -0.041383	    0.136508	    0.137575	    0.274083
     2.400	0	0	    0	    0.002789	    0.016120	    0.018909	   -0.039441	   -0.021533	   -0.060974	   -0.013085	   -0.006068	   -0.019154	   -0.006058	    0.000317	   -0.005740	   -0.019435	   -0.008411	   -0.027846	   -0.041310	   -0.019820	   -0.061130	    0.081051	    0.060828	    0.141879	    0.078645	    0.138495	    0.217139	    0.018021	    0.018996	    0.037017	    0.009065	    0.010438	    0.019502	   -0.001732	    0.000631	   -0.001101	    0.002090	    0.002428	    0.004519	   -0.010459	    0.002386	   -0.008074	    0.045105	    0.036091	    0.081196	    0.100088	    0.129945	    0.230033	    0.180506	    0.204690	    0.385196	   -0.022165	   -0.017526	   -0.039691	   -0.004475	   -0.005348	   -0.009823	   -0.025283	   -0.020259	   -0.045542	    0.000118	   -0.003058	   -0.002940	   -0.018203	   -0.013020	   -0.031224	    0.140156	    0.137631	    0.277787
     2.475	0	0	    0	    0.002611	    0.016632	    0.019243	   -0.040640	   -0.020701	   -0.061341	   -0.014044	   -0.005372	   -0.019416	   -0.006437	    0.000841	   -0.005597	   -0.019781	   -0.006533	   -0.026315	   -0.042763	   -0.018247	   -0.061010	    0.075621	    0.066655	    0.142276	    0.079361	    0.138153	    0.217514	    0.017260	    0.020173	    0.037433	    0.008812	    0.011174	    0.019986	   -0.002617	    0.000281	   -0.002337	    0.002872	    0.003350	    0.006222	   -0.010164	    0.002730	   -0.007435	    0.039805	    0.041209	    0.081015	    0.096765	    0.133057	    0.229822	    0.180481	    0.205085	    0.385566	   -0.022152	   -0.016794	   -0.038946	   -0.005645	   -0.005031	   -0.010676	   -0.026624	   -0.020129	   -0.046753	    0.000050	   -0.002322	   -0.002272	   -0.017015	   -0.013262	   -0.030277	    0.138904	    0.136470	    0.275374
     2.550	0	0	    0	    0.002419	    0.015312	    0.017731	   -0.040762	   -0.021488	   -0.062251	   -0.013874	   -0.006873	   -0.020747	   -0.007817	    0.000862	   -0.006955	   -0.020780	   -0.007139	   -0.027919	   -0.043722	   -0.019538	   -0.063260	    0.072955	    0.063685	    0.136639	    0.077149	    0.139739	    0.216888	    0.016904	    0.018877	    0.035781	    0.008145	    0.010255	    0.018400	   -0.003144	   -0.000262	   -0.003406	   -0.000178	    0.004373	    0.004195	   -0.012680	    0.002598	   -0.010082	    0.038361	    0.039476	    0.077837	    0.098673	    0.129048	    0.227720	    0.179899	    0.204499	    0.384398	   -0.024052	   -0.016854	   -0.040906	   -0.006511	   -0.005739	   -0.012250	   -0.028258	   -0.020611	   -0.048869	   -0.002918	   -0.003161	   -0.006079	   -0.019304	   -0.013173	   -0.032477	    0.134087	    0.138373	    0.272460
     2.625	0	0	    0	    0.002265	    0.015067	    0.017332	   -0.040881	   -0.021239	   -0.062120	   -0.014114	   -0.006592	   -0.020706	   -0.007674	    0.000033	   -0.007640	   -0.020517	   -0.007712	   -0.028229	   -0.043872	   -0.019164	   -0.063036	    0.076103	    0.059053	    0.135156	    0.077444	    0.138888	    0.216332	    0.017041	    0.018384	    0.035425	    0.008499	    0.010367	    0.018866	   -0.003065	   -0.000252	   -0.003318	    0.000794	    0.004040	    0.004833	   -0.012083	    0.002199	   -0.009884	    0.039645	    0.037090	    0.076735	    0.097077	    0.130637	    0.227715	    0.180521	    0.203915	    0.384436	   -0.023604	   -0.016736	   -0.040340	   -0.005672	   -0.005989	   -0.011661	   -0.027562	   -0.020768	   -0.048329	   -0.002387	   -0.002445	   -0.004832	   -0.019346	   -0.013062	   -0.032408	    0.138068	    0.135007	    0.273074
     2.700	0	0	    0	    0.002529	    0.014625	    0.017154	   -0.042440	   -0.020342	   -0.062782	   -0.015307	   -0.006080	   -0.021387	   -0.007391	   -0.000209	   -0.007600	   -0.020539	   -0.007856	   -0.028395	   -0.045727	   -0.018997	   -0.064724	    0.067083	    0.069436	    0.136519	    0.079279	    0.136967	    0.216245	    0.017914	    0.016723	    0.034636	    0.007316	    0.010428	    0.017744	   -0.003560	   -0.000251	   -0.003811	    0.001753	    0.002869	    0.004622	   -0.012988	    0.002672	   -0.010315	    0.037248	    0.037855	    0.075103	    0.096510	    0.130190	    0.226700	    0.179826	    0.204025	    0.383850	   -0.023353	   -0.017481	   -0.040834	   -0.007995	   -0.005431	   -0.013425	   -0.029330	   -0.020736	   -0.050066	   -0.001809	   -0.003357	   -0.005165	   -0.019976	   -0.013183	   -0.033159	    0.128952	    0.140848	    0.269800
     2.775	0	0	    0	   -0.000173	    0.015845	    0.015673	   -0.042530	   -0.021291	   -0.063821	   -0.016382	   -0.006241	   -0.022623	   -0.009184	    0.000188	   -0.008996	   -0.022719	   -0.006912	   -0.029631	   -0.047369	   -0.019587	   -0.066956	    0.066675	    0.066531	    0.133206	    0.076134	    0.138683	    0.214816	    0.015520	    0.018512	    0.034032	    0.005785	    0.010253	    0.016037	   -0.004419	   -0.000649	   -0.005068	   -0.002133	    0.004055	    0.001922	   -0.016717	    0.003355	   -0.013363	    0.035047	    0.038524	    0.073571	    0.094946	    0.130837	    0.225783	    0.178665	    0.203829	    0.382495	   -0.025696	   -0.016740	   -0.042436	   -0.009978	   -0.006235	   -0.016214	   -0.031508	   -0.021423	   -0.052931	   -0.006402	   -0.002370	   -0.008772	   -0.022680	   -0.012522	   -0.035201	    0.131458	    0.136831	    0.268289
     2.850	0	0	    0	   -0.001012	    0.014920	    0.013908	   -0.044809	   -0.020373	   -0.065183	   -0.017343	   -0.006197	   -0.023540	   -0.009914	    0.000022	   -0.009892	   -0.024120	   -0.007371	   -0.031491	   -0.048662	   -0.020266	   -0.068928	    0.066936	    0.064774	    0.131710	    0.075540	    0.138253	    0.213793	    0.013895	    0.018649	    0.032544	    0.004699	    0.010363	    0.015062	   -0.005142	   -0.000768	   -0.005910	   -0.003940	    0.004092	    0.000152	   -0.018811	    0.001978	   -0.016833	    0.036670	    0.035804	    0.072474	    0.099011	    0.125036	    0.224047	    0.177851	    0.203702	    0.381553	   -0.025702	   -0.018387	   -0.044088	   -0.011725	   -0.006632	   -0.018356	   -0.034071	   -0.021892	   -0.055963	   -0.008514	   -0.003919	   -0.012433	   -0.024262	   -0.013769	   -0.038031	    0.134270	    0.131949	    0.266219
     2.925	0	0	    0	   -0.000976	    0.013147	    0.012171	   -0.045498	   -0.021106	   -0.066604	   -0.017987	   -0.006486	   -0.024473	   -0.010953	   -0.000103	   -0.011056	   -0.026249	   -0.007241	   -0.033490	   -0.051794	   -0.020611	   -0.072405	    0.068051	    0.058803	    0.126855	    0.075884	    0.136355	    0.212239	    0.013155	    0.017499	    0.030654	    0.003846	    0.010199	    0.014045	   -0.007270	    0.000176	   -0.007095	   -0.004826	    0.003073	   -0.001753	   -0.021784	    0.001673	   -0.020111	    0.035042	    0.032565	    0.067607	    0.095287	    0.128284	    0.223571	    0.176860	    0.203193	    0.380053	   -0.027335	   -0.018273	   -0.045609	   -0.013774	   -0.007143	   -0.020918	   -0.036723	   -0.022533	   -0.059256	   -0.011350	   -0.004358	   -0.015708	   -0.025950	   -0.014241	   -0.040191	    0.129882	    0.134972	    0.264855
     3.000	0	0	    0	   -0.002816	    0.012581	    0.009765	   -0.047273	   -0.020756	   -0.068029	   -0.018900	   -0.006439	   -0.025339	   -0.012072	    0.000628	   -0.011444	   -0.027139	   -0.008327	   -0.035466	   -0.054024	   -0.021010	   -0.075033	    0.060552	    0.064180	    0.124732	    0.074216	    0.135818	    0.210034	    0.011256	    0.017792	    0.029049	    0.003769	    0.009847	    0.013616	   -0.006365	   -0.000564	   -0.006930	   -0.006427	    0.003005	   -0.003422	   -0.025245	    0.002080	   -0.023165	    0.028903	    0.035872	    0.064776	    0.091783	    0.130643	    0.222426	    0.174324	    0.203872	    0.378196	   -0.029141	   -0.017055	   -0.046196	   -0.012782	   -0.008159	   -0.020942	   -0.036040	   -0.023779	   -0.059819	   -0.015519	   -0.003749	   -0.019267	   -0.029649	   -0.013297	   -0.042946	    0.127902	    0.135456	    0.263358
     3.075	0	0	    0	   -0.000468	    0.012530	    0.012062	   -0.042328	   -0.020722	   -0.063050	   -0.014589	   -0.007254	   -0.021842	   -0.009786	   -0.000969	   -0.010755	   -0.025184	   -0.008995	   -0.034179	   -0.047243	   -0.020773	   -0.068016	    0.071241	    0.065901	    0.137142	    0.075574	    0.134844	    0.210418	    0.015758	    0.017787	    0.033545	    0.009078	    0.010301	    0.019378	   -0.002099	   -0.000509	   -0.002608	   -0.001846	    0.000339	   -0.001507	   -0.013888	   -0.001388	   -0.015276	    0.037231	    0.032457	    0.069688	    0.097623	    0.129201	    0.226824	    0.177505	    0.201693	    0.379198	   -0.022315	   -0.019721	   -0.042036	   -0.003747	   -0.007410	   -0.011157	   -0.026196	   -0.022437	   -0.048633	   -0.002585	   -0.007995	   -0.010580	   -0.019615	   -0.016947	   -0.036562	    0.131250	    0.133527	    0.264777
     3.150	0	0	    0	    0.000053	    0.016283	    0.016336	   -0.040759	   -0.019832	   -0.060592	   -0.014121	   -0.005898	   -0.020018	   -0.008143	    0.001041	   -0.007102	   -0.021122	   -0.007498	   -0.028620	   -0.043514	   -0.020501	   -0.064015	    0.072635	    0.069248	    0.141883	    0.076270	    0.135851	    0.212121	    0.017433	    0.019097	    0.036530	    0.011058	    0.011690	    0.022748	   -0.001619	   -0.000214	   -0.001833	    0.002661	    0.003506	    0.006167	   -0.010096	    0.004238	   -0.005858	    0.037522	    0.036602	    0.074124	    0.097673	    0.130123	    0.227795	    0.177428	    0.203413	    0.380841	   -0.020483	   -0.015813	   -0.036297	   -0.002649	   -0.005476	   -0.008125	   -0.025086	   -0.020267	   -0.045353	    0.000367	   -0.001454	   -0.001088	   -0.017017	   -0.011893	   -0.028910	    0.131715	    0.135341	    0.267056
     3.225	0	0	    0	    0.000242	    0.016184	    0.016425	   -0.040947	   -0.020120	   -0.061067	   -0.014353	   -0.006354	   -0.020707	   -0.007581	   -0.000182	   -0.007762	   -0.020451	   -0.007047	   -0.027498	   -0.044190	   -0.020075	   -0.064265	    0.076387	    0.061514	    0.137901	    0.076384	    0.135578	    0.211962	    0.018435	    0.018045	    0.036480	    0.010879	    0.011990	    0.022869	   -0.002465	   -0.000328	   -0.002793	    0.003715	    0.003614	    0.007329	   -0.009692	    0.004310	   -0.005382	    0.038112	    0.035453	    0.073565	    0.093617	    0.132982	    0.226599	    0.177588	    0.203041	    0.380629	   -0.020248	   -0.015172	   -0.035420	   -0.003422	   -0.005242	   -0.008664	   -0.025937	   -0.020375	   -0.046312	    0.001379	   -0.002001	   -0.000623	   -0.014427	   -0.013388	   -0.027815	    0.133164	    0.136007	    0.269171
     3.300	0	0	    0	   -0.000020	    0.015583	    0.015562	   -0.041381	   -0.020096	   -0.061477	   -0.015108	   -0.006176	   -0.021284	   -0.007585	   -0.000485	   -0.008070	   -0.020900	   -0.007677	   -0.028577	   -0.046291	   -0.019707	   -0.065998	    0.072668	    0.062757	    0.135425	    0.075871	    0.135486	    0.211357	    0.017090	    0.018286	    0.035375	    0.009927	    0.012285	    0.022212	   -0.002348	   -0.001131	   -0.003479	    0.003281	    0.003664	    0.006945	   -0.011198	    0.003683	   -0.007515	    0.036193	    0.035444	    0.071637	    0.095051	    0.130384	    0.225435	    0.178161	    0.202182	    0.380342	   -0.020005	   -0.016505	   -0.036509	   -0.004416	   -0.005091	   -0.009506	   -0.026518	   -0.021087	   -0.047605	   -0.000170	   -0.002513	   -0.002682	   -0.016935	   -0.012780	   -0.029715	    0.128818	    0.137577	    0.266395
     3.375	0	0	    0	    0.000976	    0.014696	    0.015672	   -0.040852	   -0.020475	   -0.061327	   -0.014262	   -0.006374	   -0.020637	   -0.008269	    0.000103	   -0.008166	   -0.021928	   -0.006435	   -0.028363	   -0.046093	   -0.019266	   -0.065359	    0.070357	    0.065312	    0.135668	    0.074779	    0.135350	    0.210129	    0.016324	    0.018682	    0.035006	    0.009735	    0.012825	    0.022560	   -0.000545	   -0.000670	   -0.001215	    0.003148	    0.004458	    0.007606	   -0.009979	    0.002969	   -0.007010	    0.037391	    0.032763	    0.070155	    0.098574	    0.125751	    0.224325	    0.177626	    0.201970	    0.379597	   -0.019479	   -0.016959	   -0.036438	   -0.004138	   -0.005553	   -0.009691	   -0.026937	   -0.021039	   -0.047976	    0.001984	   -0.003898	   -0.001914	   -0.016418	   -0.013223	   -0.029641	    0.133259	    0.133565	    0.266824
     3.450	0	0	    0	   -0.000861	    0.015165	    0.014305	   -0.042577	   -0.019266	   -0.061843	   -0.015241	   -0.005916	   -0.021157	   -0.008404	    0.000155	   -0.008249	   -0.022049	   -0.006754	   -0.028803	   -0.047480	   -0.020166	   -0.067646	    0.069541	    0.062596	    0.132136	    0.072817	    0.135274	    0.208091	    0.016632	    0.017526	    0.034158	    0.009581	    0.012094	    0.021675	   -0.001549	    0.000445	   -0.001104	    0.002080	    0.005556	    0.007637	   -0.012343	    0.004197	   -0.008146	    0.033712	    0.033452	    0.067164	    0.090493	    0.131297	    0.221789	    0.176384	    0.201624	    0.378008	   -0.021209	   -0.016092	   -0.037301	   -0.006285	   -0.005583	   -0.011867	   -0.029555	   -0.020935	   -0.050490	   -0.000430	   -0.002946	   -0.003377	   -0.017490	   -0.012930	   -0.030421	    0.127545	    0.135290	    0.262835
     3.525	0	0	    0	   -0.001422	    0.014077	    0.012655	   -0.043531	   -0.019829	   -0.063359	   -0.016349	   -0.005787	   -0.022136	   -0.008773	   -0.001110	   -0.009883	   -0.023128	   -0.006973	   -0.030101	   -0.050121	   -0.019786	   -0.069906	    0.069631	    0.061173	    0.130804	    0.073259	    0.134090	    0.207349	    0.015590	    0.017199	    0.032789	    0.008785	    0.011529	    0.020314	   -0.000773	    0.000912	    0.000139	    0.000978	    0.004057	    0.005035	   -0.015081	    0.003452	   -0.011629	    0.029574	    0.033603	    0.063176	    0.094167	    0.127935	    0.222103	    0.175145	    0.201865	    0.377009	   -0.023338	   -0.015651	   -0.038989	   -0.008626	   -0.006445	   -0.015071	   -0.031843	   -0.022478	   -0.054321	   -0.003183	   -0.003942	   -0.007125	   -0.020330	   -0.012313	   -0.032643	    0.128057	    0.133096	    0.261153
     3.600	0	0	    0	   -0.002671	    0.012566	    0.009895	   -0.045046	   -0.020059	   -0.065105	   -0.016228	   -0.005754	   -0.021982	   -0.010117	   -0.000450	   -0.010567	   -0.024666	   -0.007965	   -0.032631	   -0.052521	   -0.020838	   -0.073359	    0.063957	    0.061568	    0.125525	    0.071058	    0.133783	    0.204840	    0.013333	    0.017316	    0.030648	    0.007015	    0.011773	    0.018789	   -0.000951	    0.002323	    0.001372	   -0.000226	    0.003565	    0.003339	   -0.018597	    0.003743	   -0.014854	    0.029971	    0.028349	    0.058320	    0.092703	    0.126548	    0.219251	    0.173544	    0.200959	    0.374503	   -0.024272	   -0.016759	   -0.041032	   -0.011331	   -0.006610	   -0.017940	   -0.034981	   -0.022671	   -0.057652	   -0.006583	   -0.003533	   -0.010116	   -0.021652	   -0.014903	   -0.036555	    0.123957	    0.133562	    0.257519
     3.675	0	0	    0	   -0.002528	    0.011158	    0.008631	   -0.046397	   -0.020038	   -0.066435	   -0.017892	   -0.005217	   -0.023109	   -0.011601	   -0.000150	   -0.011751	   -0.026388	   -0.007932	   -0.034320	   -0.055412	   -0.020455	   -0.075868	    0.059788	    0.061491	    0.121278	    0.069056	    0.134364	    0.203420	    0.012345	    0.017658	    0.030003	    0.005818	    0.012028	    0.017847	   -0.001308	    0.003033	    0.001725	   -0.003115	    0.003788	    0.000672	   -0.020708	    0.002188	   -0.018521	    0.023791	    0.034014	    0.057806	    0.087444	    0.129741	    0.217185	    0.172301	    0.200488	    0.372789	   -0.025177	   -0.017190	   -0.042367	   -0.013758	   -0.007060	   -0.020819	   -0.037551	   -0.023660	   -0.061211	   -0.009172	   -0.005717	   -0.014889	   -0.023435	   -0.015000	   -0.038435	    0.119990	    0.135638	    0.255628
     3.750	0	0	    0	   -0.005837	    0.013361	    0.007523	   -0.045344	   -0.020930	   -0.066274	   -0.015968	   -0.006011	   -0.021978	   -0.011722	   -0.000333	   -0.012054	   -0.027210	   -0.008863	   -0.036073	   -0.052156	   -0.023684	   -0.075840	    0.068482	    0.056569	    0.125051	    0.070690	    0.131031	    0.201721	    0.011611	    0.016769	    0.028380	    0.008897	    0.011389	    0.020286	    0.001925	    0.003555	    0.005481	   -0.003786	    0.002874	   -0.000912	   -0.021010	    0.000832	   -0.020178	    0.030709	    0.028589	    0.059298	    0.088712	    0.128032	    0.216744	    0.171643	    0.199298	    0.370941	   -0.024276	   -0.018255	   -0.042531	   -0.007978	   -0.008505	   -0.016483	   -0.032036	   -0.025541	   -0.057577	   -0.008611	   -0.007962	   -0.016573	   -0.025492	   -0.014373	   -0.039866	    0.123544	    0.132064	    0.255607
     3.825	0	0	    0	    0.000289	    0.011071	    0.011359	   -0.040207	   -0.020380	   -0.060587	   -0.011695	   -0.005310	   -0.017005	   -0.008187	   -0.000407	   -0.008593	   -0.022339	   -0.008905	   -0.031244	   -0.046252	   -0.020393	   -0.066646	    0.069778	    0.068356	    0.138133	    0.072176	    0.132138	    0.204314	    0.017214	    0.016543	    0.033757	    0.013554	    0.012701	    0.026255	    0.005749	    0.004907	    0.010656	    0.003085	    0.003385	    0.006470	   -0.008225	    0.000793	   -0.007432	    0.036502	    0.031818	    0.068320	    0.093354	    0.127996	    0.221350	    0.174410	    0.199224	    0.373634	   -0.017080	   -0.018544	   -0.035625	   -0.001197	   -0.006262	   -0.007459	   -0.024117	   -0.022727	   -0.046843	    0.003990	   -0.006371	   -0.002381	   -0.013281	   -0.016251	   -0.029532	    0.128312	    0.131628	    0.259939
     3.900	0	0	    0	    0.000946	    0.012609	    0.013555	   -0.039848	   -0.019560	   -0.059408	   -0.011905	   -0.004101	   -0.016005	   -0.006175	   -0.000192	   -0.006366	   -0.019755	   -0.007124	   -0.026879	   -0.043217	   -0.021708	   -0.064925	    0.077164	    0.057135	    0.134299	    0.072316	    0.132268	    0.204584	    0.019032	    0.016653	    0.035685	    0.015638	    0.012302	    0.027940	    0.006449	    0.004777	    0.011226	    0.006611	    0.004613	    0.011224	   -0.007015	    0.004699	   -0.002316	    0.038988	    0.028626	    0.067614	    0.091973	    0.127105	    0.219077	    0.174539	    0.199790	    0.374328	   -0.017085	   -0.016230	   -0.033315	   -0.001011	   -0.005088	   -0.006099	   -0.024034	   -0.021557	   -0.045591	    0.003998	   -0.001472	    0.002527	   -0.012143	   -0.013036	   -0.025178	    0.126620	    0.131916	    0.258536
     3.975	0	0	    0	    0.001344	    0.013313	    0.014656	   -0.040162	   -0.019328	   -0.059491	   -0.011842	   -0.004598	   -0.016440	   -0.005687	   -0.001310	   -0.006997	   -0.019344	   -0.006623	   -0.025967	   -0.045563	   -0.019789	   -0.065351	    0.069846	    0.064220	    0.134066	    0.073176	    0.131114	    0.204290	    0.018844	    0.016619	    0.035463	    0.014191	    0.013552	    0.027743	    0.005861	    0.005080	    0.010942	    0.007221	    0.004628	    0.011850	   -0.005921	    0.003362	   -0.002559	    0.033554	    0.033146	    0.066700	    0.090595	    0.129788	    0.220384	    0.175800	    0.198159	    0.373958	   -0.016102	   -0.016727	   -0.032829	   -0.001908	   -0.004500	   -0.006408	   -0.025342	   -0.021239	   -0.046581	    0.006339	   -0.004460	    0.001879	   -0.011782	   -0.013784	   -0.025566	    0.122416	    0.136292	    0.258709
     4.050	0	0	    0	    0.000181	    0.014321	    0.014502	   -0.040054	   -0.019477	   -0.059532	   -0.011864	   -0.004880	   -0.016744	   -0.006306	   -0.000948	   -0.007254	   -0.019613	   -0.007039	   -0.026652	   -0.045995	   -0.019722	   -0.065717	    0.068784	    0.064873	    0.133658	    0.072385	    0.131483	    0.203869	    0.017094	    0.017917	    0.035010	    0.014086	    0.013513	    0.027600	    0.005762	    0.005039	    0.010800	    0.006714	    0.004692	    0.011406	   -0.007468	    0.003910	   -0.003558	    0.032157	    0.032584	    0.064741	    0.090927	    0.129785	    0.220712	    0.174875	    0.198285	    0.373160	   -0.016126	   -0.016845	   -0.032971	   -0.001578	   -0.005472	   -0.007050	   -0.025668	   -0.021944	   -0.047612	    0.004928	   -0.004036	    0.000893	   -0.012030	   -0.014528	   -0.026557	    0.126029	    0.132987	    0.259016
     4.125	0	0	    0	    0.000017	    0.013164	    0.013181	   -0.039983	   -0.019904	   -0.059888	   -0.011708	   -0.005184	   -0.016892	   -0.006384	   -0.001131	   -0.007514	   -0.019609	   -0.007027	   -0.026636	   -0.045828	   -0.019890	   -0.065717	    0.073293	    0.059601	    0.132894	    0.071299	    0.132786	    0.204085	    0.017505	    0.017301	    0.034806	    0.014167	    0.013852	    0.028019	    0.006011	    0.003870	    0.009881	    0.007054	    0.004052	    0.011106	   -0.007213	    0.003657	   -0.003556	    0.035256	    0.029552	    0.064808	    0.088978	    0.129646	    0.218624	    0.174516	    0.199135	    0.373651	   -0.016383	   -0.016247	   -0.032630	   -0.002492	   -0.005477	   -0.007969	   -0.026490	   -0.022061	   -0.048551	    0.005756	   -0.005225	    0.000531	   -0.012268	   -0.014113	   -0.026381	    0.128739	    0.128877	    0.257616
     4.200	0	0	    0	   -0.001036	    0.013229	    0.012193	   -0.040840	   -0.019959	   -0.060799	   -0.012776	   -0.005018	   -0.017794	   -0.007245	   -0.000848	   -0.008092	   -0.020203	   -0.007522	   -0.027725	   -0.048108	   -0.019812	   -0.067921	    0.068650	    0.060061	    0.128712	    0.069522	    0.132606	    0.202128	    0.016106	    0.017271	    0.033377	    0.012901	    0.013134	    0.026034	    0.004161	    0.004365	    0.008526	    0.005122	    0.005208	    0.010330	   -0.010129	    0.004640	   -0.005489	    0.031738	    0.030377	    0.062115	    0.089647	    0.126072	    0.215719	    0.172102	    0.199422	    0.371524	   -0.018054	   -0.016719	   -0.034773	   -0.005107	   -0.005349	   -0.010457	   -0.028376	   -0.021835	   -0.050211	    0.002906	   -0.003587	   -0.000681	   -0.016422	   -0.011661	   -0.028083	    0.121745	    0.131178	    0.252924
     4.275	0	0	    0	   -0.001813	    0.012232	    0.010420	   -0.041746	   -0.020119	   -0.061864	   -0.013959	   -0.005073	   -0.019032	   -0.007889	   -0.001493	   -0.009382	   -0.021923	   -0.007022	   -0.028944	   -0.049587	   -0.020512	   -0.070098	    0.067098	    0.061235	    0.128333	    0.069602	    0.130762	    0.200364	    0.015584	    0.016979	    0.032564	    0.011286	    0.012980	    0.024267	    0.003546	    0.004174	    0.007720	    0.002911	    0.005174	    0.008085	   -0.011804	    0.002986	   -0.008819	    0.029647	    0.029742	    0.059389	    0.091418	    0.123904	    0.215322	    0.170479	    0.198187	    0.368666	   -0.019094	   -0.017582	   -0.036675	   -0.006272	   -0.006510	   -0.012782	   -0.030212	   -0.022152	   -0.052364	    0.001187	   -0.005027	   -0.003840	   -0.016380	   -0.014506	   -0.030886	    0.121818	    0.127777	    0.249596
     4.350	0	0	    0	   -0.002894	    0.012135	    0.009241	   -0.042553	   -0.020508	   -0.063062	   -0.014482	   -0.005392	   -0.019875	   -0.009185	   -0.001093	   -0.010278	   -0.022268	   -0.008147	   -0.030415	   -0.050498	   -0.021587	   -0.072085	    0.063691	    0.060653	    0.124343	    0.069103	    0.130306	    0.199409	    0.013679	    0.016802	    0.030482	    0.010094	    0.012246	    0.022340	    0.002489	    0.003821	    0.006310	    0.000641	    0.005076	    0.005717	   -0.014435	    0.002710	   -0.011725	    0.031999	    0.026118	    0.058116	    0.089569	    0.125579	    0.215148	    0.170161	    0.196578	    0.366740	   -0.020945	   -0.017840	   -0.038785	   -0.008441	   -0.006892	   -0.015333	   -0.032569	   -0.022722	   -0.055291	   -0.001503	   -0.005221	   -0.006724	   -0.018398	   -0.015589	   -0.033987	    0.122779	    0.127175	    0.249954
     4.425	0	0	    0	   -0.003872	    0.011873	    0.008000	   -0.044622	   -0.019702	   -0.064324	   -0.015447	   -0.005436	   -0.020883	   -0.009379	   -0.002180	   -0.011559	   -0.024441	   -0.007524	   -0.031965	   -0.053199	   -0.021332	   -0.074531	    0.056201	    0.067262	    0.123463	    0.068888	    0.129033	    0.197921	    0.012994	    0.016256	    0.029249	    0.009384	    0.011836	    0.021221	    0.002037	    0.003858	    0.005895	   -0.000243	    0.003999	    0.003756	   -0.017508	    0.002010	   -0.015498	    0.025942	    0.030814	    0.056755	    0.089589	    0.124136	    0.213725	    0.169206	    0.196457	    0.365663	   -0.022366	   -0.017468	   -0.039834	   -0.009507	   -0.007916	   -0.017423	   -0.034755	   -0.023747	   -0.058502	   -0.004703	   -0.006300	   -0.011003	   -0.020552	   -0.015639	   -0.036190	    0.120978	    0.126533	    0.247511
     4.500	0	0	    0	   -0.002127	    0.009821	    0.007694	   -0.040357	   -0.021695	   -0.062052	   -0.012595	   -0.006603	   -0.019198	   -0.009861	   -0.002141	   -0.012002	   -0.024428	   -0.009210	   -0.033637	   -0.048239	   -0.023458	   -0.071697	    0.065698	    0.063078	    0.128775	    0.068183	    0.128752	    0.196935	    0.014898	    0.015045	    0.029943	    0.014400	    0.010258	    0.024658	    0.005518	    0.003499	    0.009017	    0.001177	    0.002106	    0.003284	   -0.014429	    0.000600	   -0.013829	    0.033984	    0.027145	    0.061129	    0.086279	    0.129420	    0.215699	    0.169517	    0.195285	    0.364803	   -0.021379	   -0.017071	   -0.038450	   -0.001731	   -0.008273	   -0.010004	   -0.026585	   -0.024000	   -0.050585	   -0.000704	   -0.007601	   -0.008304	   -0.017811	   -0.017557	   -0.035367	    0.120591	    0.129306	    0.249897
     4.575	0	0	    0	    0.000779	    0.011457	    0.012236	   -0.038283	   -0.019539	   -0.057822	   -0.011121	   -0.005130	   -0.016251	   -0.006141	   -0.002225	   -0.008366	   -0.018897	   -0.008181	   -0.027078	   -0.044954	   -0.020238	   -0.065191	    0.071306	    0.063761	    0.135067	    0.070011	    0.129223	    0.199234	    0.017500	    0.017375	    0.034875	    0.017183	    0.012129	    0.029312	    0.006867	    0.004557	    0.011425	    0.007276	    0.002684	    0.009960	   -0.005533	    0.003196	   -0.002337	    0.034257	    0.031598	    0.065854	    0.090569	    0.126626	    0.217195	    0.170760	    0.196568	    0.367329	   -0.015472	   -0.017099	   -0.032571	    0.001023	   -0.005710	   -0.004687	   -0.022781	   -0.021505	   -0.044287	    0.007033	   -0.004873	    0.002160	   -0.010378	   -0.014680	   -0.025058	    0.122515	    0.128099	    0.250614
     4.650	0	0	    0	    0.000616	    0.012477	    0.013093	   -0.037498	   -0.019684	   -0.057183	   -0.010394	   -0.005378	   -0.015772	   -0.006183	   -0.001312	   -0.007496	   -0.017354	   -0.007129	   -0.024483	   -0.042865	   -0.021280	   -0.064145	    0.073954	    0.058758	    0.132711	    0.069316	    0.129787	    0.199104	    0.018671	    0.016583	    0.035254	    0.017468	    0.012704	    0.030172	    0.006441	    0.004273	    0.010713	    0.008617	    0.004338	    0.012955	   -0.004379	    0.004483	    0.000104	    0.034329	    0.029910	    0.064238	    0.089292	    0.127272	    0.216564	    0.170396	    0.197042	    0.367438	   -0.015018	   -0.015976	   -0.030994	    0.001154	   -0.005042	   -0.003888	   -0.022872	   -0.020954	   -0.043826	    0.008509	   -0.003879	    0.004630	   -0.010609	   -0.013237	   -0.023846	    0.121223	    0.128317	    0.249539
     4.725	0	0	    0	    0.000391	    0.012439	    0.012830	   -0.038866	   -0.018987	   -0.057853	   -0.010176	   -0.006201	   -0.016377	   -0.005415	   -0.001945	   -0.007360	   -0.017523	   -0.006548	   -0.024071	   -0.044719	   -0.020021	   -0.064739	    0.074323	    0.058260	    0.132583	    0.069315	    0.128948	    0.198263	    0.017269	    0.018211	    0.035480	    0.016653	    0.012982	    0.029635	    0.006118	    0.004142	    0.010260	    0.008512	    0.004259	    0.012771	   -0.005659	    0.004957	   -0.000703	    0.032767	    0.031621	    0.064388	    0.088559	    0.127040	    0.215599	    0.169325	    0.197598	    0.366923	   -0.016023	   -0.015031	   -0.031054	    0.000306	   -0.005395	   -0.005089	   -0.023849	   -0.021468	   -0.045317	    0.006607	   -0.003200	    0.003407	   -0.010931	   -0.012770	   -0.023701	    0.119631	    0.129908	    0.249539
     4.800	0	0	    0	    0.000040	    0.012416	    0.012456	   -0.038585	   -0.019134	   -0.057719	   -0.011303	   -0.005577	   -0.016880	   -0.005725	   -0.002341	   -0.008066	   -0.018206	   -0.007011	   -0.025218	   -0.045261	   -0.019911	   -0.065172	    0.068483	    0.063247	    0.131730	    0.067503	    0.130158	    0.197661	    0.016568	    0.017956	    0.034524	    0.015892	    0.013318	    0.029211	    0.005562	    0.003794	    0.009356	    0.007233	    0.005088	    0.012321	   -0.005158	    0.003389	   -0.001768	    0.035011	    0.029827	    0.064837	    0.088777	    0.126953	    0.215730	    0.169076	    0.196904	    0.365981	   -0.015838	   -0.016375	   -0.032213	    0.000759	   -0.006176	   -0.005417	   -0.023941	   -0.021524	   -0.045465	    0.006382	   -0.003390	    0.002992	   -0.013786	   -0.011705	   -0.025491	    0.121172	    0.128254	    0.249426
     4.875	0	0	    0	   -0.001013	    0.012088	    0.011075	   -0.039275	   -0.019586	   -0.058860	   -0.011257	   -0.005716	   -0.016974	   -0.006348	   -0.002070	   -0.008419	   -0.018508	   -0.006259	   -0.024768	   -0.045512	   -0.020067	   -0.065579	    0.066744	    0.064043	    0.130787	    0.066921	    0.129869	    0.196789	    0.017277	    0.016115	    0.033392	    0.016157	    0.012492	    0.028649	    0.005890	    0.003334	    0.009223	    0.007087	    0.005234	    0.012321	   -0.005863	    0.003539	   -0.002324	    0.033720	    0.030871	    0.064592	    0.088771	    0.126168	    0.214938	    0.168705	    0.195993	    0.364698	   -0.017103	   -0.015785	   -0.032888	   -0.000400	   -0.006375	   -0.006775	   -0.025247	   -0.021698	   -0.046945	    0.006625	   -0.003840	    0.002785	   -0.010983	   -0.014735	   -0.025719	    0.121686	    0.126631	    0.248317
     4.950	0	0	    0	   -0.003043	    0.013682	    0.010639	   -0.040851	   -0.018814	   -0.059665	   -0.012389	   -0.005966	   -0.018355	   -0.007800	   -0.001430	   -0.009230	   -0.020105	   -0.006075	   -0.026181	   -0.047801	   -0.019781	   -0.067582	    0.064236	    0.060882	    0.125118	    0.065003	    0.130844	    0.195847	    0.015925	    0.016978	    0.032903	    0.014269	    0.013048	    0.027317	    0.004201	    0.003322	    0.007522	    0.005967	    0.004700	    0.010667	   -0.008264	    0.003677	   -0.004587	    0.030733	    0.031304	    0.062037	    0.087054	    0.125420	    0.212474	    0.168709	    0.195478	    0.364187	   -0.017381	   -0.016080	   -0.033461	   -0.002620	   -0.006503	   -0.009122	   -0.027440	   -0.021928	   -0.049368	    0.003691	   -0.003158	    0.000533	   -0.013470	   -0.014227	   -0.027697	    0.115648	    0.129616	    0.245264
     5.025	0	0	    0	   -0.001262	    0.008977	    0.007716	   -0.040969	   -0.020570	   -0.061539	   -0.013186	   -0.006175	   -0.019361	   -0.007976	   -0.002611	   -0.010587	   -0.020508	   -0.007383	   -0.027891	   -0.049657	   -0.020692	   -0.070350	    0.067962	    0.055174	    0.123136	    0.066432	    0.126932	    0.193363	    0.014552	    0.016068	    0.030620	    0.013830	    0.011638	    0.025468	    0.003041	    0.002740	    0.005781	    0.004966	    0.003230	    0.008196	   -0.011329	    0.003208	   -0.008121	    0.029713	    0.030063	    0.059776	    0.082626	    0.129709	    0.212335	    0.167245	    0.196100	    0.363345	   -0.018231	   -0.018104	   -0.036335	   -0.005189	   -0.006811	   -0.012000	   -0.030079	   -0.022495	   -0.052574	    0.001737	   -0.005140	   -0.003403	   -0.014634	   -0.015623	   -0.030257	    0.118361	    0.126173	    0.244534
     5.100	0	0	    0	   -0.003618	    0.011183	    0.007565	   -0.042821	   -0.019574	   -0.062395	   -0.014538	   -0.006503	   -0.021041	   -0.009972	   -0.001469	   -0.011441	   -0.022858	   -0.007217	   -0.030075	   -0.051320	   -0.021825	   -0.073146	    0.059035	    0.061443	    0.120478	    0.064781	    0.128495	    0.193275	    0.014379	    0.015048	    0.029427	    0.012762	    0.011143	    0.023904	    0.002032	    0.001524	    0.003556	    0.000632	    0.005006	    0.005637	   -0.013840	    0.002397	   -0.011443	    0.025365	    0.030320	    0.055684	    0.086689	    0.125050	    0.211739	    0.166259	    0.196064	    0.362323	   -0.021790	   -0.016588	   -0.038378	   -0.007115	   -0.007341	   -0.014456	   -0.032157	   -0.023322	   -0.055478	   -0.002623	   -0.003690	   -0.006313	   -0.019307	   -0.013492	   -0.032799	    0.119509	    0.123369	    0.242879
     5.175	0	0	    0	   -0.005051	    0.011315	    0.006264	   -0.043143	   -0.020590	   -0.063733	   -0.015397	   -0.006082	   -0.021479	   -0.010580	   -0.001371	   -0.011950	   -0.024633	   -0.006948	   -0.031581	   -0.052423	   -0.022611	   -0.075033	    0.061751	    0.059342	    0.121093	    0.064979	    0.128427	    0.193406	    0.012765	    0.015296	    0.028062	    0.011242	    0.011271	    0.022513	    0.001849	    0.001500	    0.003350	   -0.000325	    0.003868	    0.003543	   -0.016452	    0.001839	   -0.014614	    0.027801	    0.024183	    0.051984	    0.087047	    0.124640	    0.211687	    0.166397	    0.195099	    0.361496	   -0.020873	   -0.018791	   -0.039664	   -0.008408	   -0.007980	   -0.016388	   -0.034324	   -0.023745	   -0.058069	   -0.003660	   -0.006585	   -0.010246	   -0.020119	   -0.016383	   -0.036502	    0.116699	    0.122273	    0.238972
     5.250	0	0	    0	   -0.006651	    0.011812	    0.005161	   -0.044982	   -0.019488	   -0.064470	   -0.016644	   -0.006195	   -0.022839	   -0.011061	   -0.002160	   -0.013221	   -0.025264	   -0.008361	   -0.033625	   -0.055307	   -0.022740	   -0.078047	    0.056597	    0.059201	    0.115798	    0.063064	    0.127510	    0.190574	    0.009773	    0.017326	    0.027099	    0.009943	    0.010442	    0.020384	   -0.000195	    0.002186	    0.001992	   -0.002698	    0.003479	    0.000781	   -0.019309	    0.001683	   -0.017626	    0.021612	    0.029793	    0.051406	    0.078300	    0.130271	    0.208571	    0.164366	    0.195518	    0.359884	   -0.024345	   -0.017266	   -0.041610	   -0.011507	   -0.007840	   -0.019346	   -0.036995	   -0.023764	   -0.060759	   -0.007175	   -0.006393	   -0.013568	   -0.023204	   -0.015067	   -0.038271	    0.108083	    0.130045	    0.238128
     5.325	0	0	    0	   -0.006608	    0.009438	    0.002830	   -0.041936	   -0.021897	   -0.063833	   -0.013507	   -0.008134	   -0.021641	   -0.011806	   -0.002560	   -0.014366	   -0.026345	   -0.009000	   -0.035345	   -0.051226	   -0.025368	   -0.076594	    0.069331	    0.049687	    0.119018	    0.062343	    0.127071	    0.189414	    0.011171	    0.014853	    0.026024	    0.013580	    0.009879	    0.023459	    0.003813	    0.001535	    0.005348	   -0.003028	    0.001630	   -0.001398	   -0.017859	   -0.000947	   -0.018805	    0.027260	    0.027959	    0.055219	    0.083807	    0.124920	    0.208727	    0.163287	    0.194630	    0.357917	   -0.021609	   -0.020174	   -0.041783	   -0.003211	   -0.009799	   -0.013009	   -0.028759	   -0.026059	   -0.054818	   -0.004660	   -0.010219	   -0.014879	   -0.021410	   -0.018021	   -0.039430	    0.114435	    0.123230	    0.237665
     5.400	0	0	    0	   -0.003904	    0.011078	    0.007174	   -0.040006	   -0.019116	   -0.059122	   -0.011369	   -0.006229	   -0.017598	   -0.008368	   -0.002241	   -0.010609	   -0.020650	   -0.009111	   -0.029761	   -0.046407	   -0.022446	   -0.068853	    0.070670	    0.058572	    0.129242	    0.063499	    0.128030	    0.191530	    0.016922	    0.014729	    0.031650	    0.016806	    0.011459	    0.028265	    0.005622	    0.003029	    0.008651	    0.003202	    0.003029	    0.006231	   -0.006005	    0.001197	   -0.004809	    0.033007	    0.030791	    0.063798	    0.083880	    0.126447	    0.210327	    0.166490	    0.194273	    0.360763	   -0.013621	   -0.021068	   -0.034689	    0.001035	   -0.006496	   -0.005460	   -0.023582	   -0.021962	   -0.045544	    0.007635	   -0.008091	   -0.000456	   -0.009278	   -0.017779	   -0.027057	    0.115686	    0.126188	    0.241874
     5.475	0	0	    0	   -0.003499	    0.012938	    0.009438	   -0.038756	   -0.019519	   -0.058274	   -0.010769	   -0.006421	   -0.017190	   -0.006982	   -0.002053	   -0.009034	   -0.018752	   -0.007193	   -0.025945	   -0.045809	   -0.021140	   -0.066949	    0.068251	    0.061124	    0.129375	    0.062897	    0.128654	    0.191551	    0.017512	    0.015832	    0.033344	    0.018022	    0.011309	    0.029332	    0.006211	    0.002353	    0.008565	    0.005460	    0.004376	    0.009836	   -0.004240	    0.002666	   -0.001574	    0.034238	    0.029931	    0.064169	    0.086179	    0.124734	    0.210913	    0.166295	    0.194638	    0.360934	   -0.014638	   -0.018327	   -0.032965	    0.001773	   -0.006149	   -0.004376	   -0.022867	   -0.021926	   -0.044793	    0.009625	   -0.007129	    0.002496	   -0.009486	   -0.014486	   -0.023972	    0.117513	    0.124436	    0.241949
     5.550	0	0	    0	   -0.002599	    0.011861	    0.009262	   -0.039755	   -0.018915	   -0.058670	   -0.011617	   -0.006162	   -0.017779	   -0.007162	   -0.001885	   -0.009047	   -0.017955	   -0.007402	   -0.025357	   -0.046812	   -0.020844	   -0.067656	    0.066158	    0.061162	    0.127320	    0.062912	    0.128187	    0.191099	    0.017502	    0.015760	    0.033262	    0.017093	    0.011891	    0.028984	    0.005522	    0.002232	    0.007754	    0.006956	    0.003658	    0.010615	   -0.005362	    0.003416	   -0.001946	    0.034389	    0.027171	    0.061559	    0.080867	    0.129235	    0.210102	    0.166535	    0.194074	    0.360608	   -0.014291	   -0.018991	   -0.033281	    0.000612	   -0.006274	   -0.005662	   -0.023954	   -0.021846	   -0.045801	    0.008361	   -0.005787	    0.002574	   -0.010059	   -0.015126	   -0.025185	    0.113265	    0.129205	    0.242470
     5.625	0	0	    0	   -0.003805	    0.012305	    0.008500	   -0.038788	   -0.019594	   -0.058383	   -0.010942	   -0.007018	   -0.017961	   -0.007317	   -0.002169	   -0.009486	   -0.018564	   -0.007565	   -0.026130	   -0.046296	   -0.021410	   -0.067706	    0.069395	    0.059413	    0.128808	    0.061648	    0.127620	    0.189268	    0.015235	    0.017825	    0.033060	    0.018162	    0.010888	    0.029050	    0.005226	    0.001265	    0.006491	    0.005978	    0.003682	    0.009660	   -0.006254	    0.003403	   -0.002851	    0.033332	    0.029388	    0.062720	    0.083130	    0.127930	    0.211060	    0.164465	    0.195062	    0.359527	   -0.015588	   -0.017128	   -0.032715	    0.001785	   -0.006934	   -0.005149	   -0.023641	   -0.022083	   -0.045723	    0.006509	   -0.004867	    0.001643	   -0.013344	   -0.012121	   -0.025465	    0.112434	    0.127665	    0.240100
     5.700	0	0	    0	   -0.002482	    0.010808	    0.008325	   -0.040204	   -0.018442	   -0.058646	   -0.011712	   -0.006632	   -0.018344	   -0.005764	   -0.004073	   -0.009837	   -0.017876	   -0.008119	   -0.025995	   -0.047643	   -0.020461	   -0.068104	    0.064284	    0.064223	    0.128507	    0.063634	    0.126730	    0.190364	    0.016512	    0.015998	    0.032510	    0.017141	    0.011990	    0.029131	    0.004353	    0.001407	    0.005761	    0.007518	    0.002933	    0.010451	   -0.006087	    0.003390	   -0.002697	    0.029476	    0.031999	    0.061476	    0.085168	    0.124624	    0.209792	    0.164518	    0.195288	    0.359806	   -0.014918	   -0.018211	   -0.033129	    0.000412	   -0.006552	   -0.006140	   -0.024628	   -0.021916	   -0.046544	    0.008133	   -0.005633	    0.002500	   -0.011540	   -0.013876	   -0.025415	    0.112125	    0.127068	    0.239193
     5.775	0	0	    0	   -0.002659	    0.010419	    0.007760	   -0.040778	   -0.018967	   -0.059746	   -0.012777	   -0.006885	   -0.019662	   -0.007011	   -0.003581	   -0.010592	   -0.019687	   -0.007203	   -0.026890	   -0.049250	   -0.020955	   -0.070205	    0.064692	    0.058983	    0.123675	    0.061546	    0.127161	    0.188707	    0.016869	    0.014680	    0.031549	    0.015786	    0.010743	    0.026529	    0.002944	    0.000579	    0.003523	    0.005719	    0.003293	    0.009012	   -0.007032	    0.001920	   -0.005112	    0.030590	    0.029000	    0.059590	    0.081734	    0.127320	    0.209054	    0.164307	    0.193632	    0.357939	   -0.015203	   -0.019677	   -0.034880	   -0.001446	   -0.007078	   -0.008524	   -0.026796	   -0.022227	   -0.049023	    0.007595	   -0.007818	   -0.000222	   -0.010762	   -0.017022	   -0.027784	    0.113635	    0.125447	    0.239082
     5.850	0	0	    0	   -0.005062	    0.010416	    0.005354	   -0.041911	   -0.019682	   -0.061593	   -0.013096	   -0.007800	   -0.020896	   -0.008228	   -0.003700	   -0.011928	   -0.021383	   -0.007596	   -0.028979	   -0.050480	   -0.022720	   -0.073200	    0.059876	    0.059747	    0.119622	    0.059905	    0.127279	    0.187184	    0.014145	    0.015656	    0.029801	    0.015344	    0.010237	    0.025581	    0.001746	    0.000138	    0.001884	    0.002170	    0.003254	    0.005423	   -0.010352	    0.002190	   -0.008162	    0.027581	    0.026578	    0.054159	    0.078600	    0.127022	    0.205622	    0.162680	    0.194071	    0.356750	   -0.017294	   -0.018658	   -0.035952	   -0.003866	   -0.007419	   -0.011286	   -0.029205	   -0.022510	   -0.051715	    0.003501	   -0.006987	   -0.003485	   -0.015271	   -0.015570	   -0.030841	    0.109609	    0.124247	    0.233856
     5.925	0	0	    0	   -0.006693	    0.011140	    0.004447	   -0.043725	   -0.018808	   -0.062533	   -0.014761	   -0.007109	   -0.021870	   -0.009774	   -0.002985	   -0.012759	   -0.022874	   -0.007423	   -0.030297	   -0.052348	   -0.022180	   -0.074529	    0.057363	    0.060975	    0.118338	    0.059981	    0.127240	    0.187221	    0.013173	    0.015162	    0.028334	    0.012942	    0.010863	    0.023805	    0.000876	   -0.000429	    0.000447	    0.001247	    0.002860	    0.004107	   -0.013299	    0.002106	   -0.011193	    0.024639	    0.030077	    0.054715	    0.081932	    0.123086	    0.205019	    0.161471	    0.194198	    0.355669	   -0.019146	   -0.019524	   -0.038670	   -0.005892	   -0.007865	   -0.013757	   -0.031036	   -0.023491	   -0.054528	    0.000523	   -0.007607	   -0.007084	   -0.015793	   -0.016991	   -0.032785	    0.111726	    0.122184	    0.233911
     6.000	0	0	    0	   -0.006324	    0.009542	    0.003218	   -0.044427	   -0.019480	   -0.063907	   -0.015700	   -0.007588	   -0.023287	   -0.010232	   -0.003774	   -0.014006	   -0.023454	   -0.009094	   -0.032547	   -0.055316	   -0.022278	   -0.077594	    0.058551	    0.056542	    0.115093	    0.059097	    0.126639	    0.185736	    0.011506	    0.015251	    0.026757	    0.011401	    0.010416	    0.021817	   -0.000566	   -0.000753	   -0.001319	   -0.000452	    0.002049	    0.001597	   -0.016399	    0.001955	   -0.014445	    0.025235	    0.028034	    0.053269	    0.080231	    0.124035	    0.204266	    0.160394	    0.194816	    0.355210	   -0.021295	   -0.019422	   -0.040717	   -0.007772	   -0.008685	   -0.016457	   -0.033604	   -0.023735	   -0.057339	   -0.003125	   -0.007377	   -0.010501	   -0.018280	   -0.017416	   -0.035696	    0.109900	    0.122916	    0.232817
     6.075	0	0	    0	   -0.008087	    0.009264	    0.001177	   -0.046586	   -0.018743	   -0.065329	   -0.016935	   -0.007573	   -0.024508	   -0.012064	   -0.003335	   -0.015399	   -0.025985	   -0.008331	   -0.034316	   -0.057878	   -0.022225	   -0.080103	    0.053728	    0.060916	    0.114644	    0.058638	    0.125524	    0.184162	    0.010081	    0.015132	    0.025213	    0.010520	    0.010333	    0.020853	   -0.001705	   -0.001116	   -0.002821	   -0.003028	    0.001630	   -0.001398	   -0.018261	    0.000676	   -0.017585	    0.024777	    0.026594	    0.051372	    0.074680	    0.128471	    0.203151	    0.160491	    0.193954	    0.354445	   -0.022796	   -0.018809	   -0.041605	   -0.009373	   -0.008609	   -0.017983	   -0.035704	   -0.024343	   -0.060046	   -0.005820	   -0.007650	   -0.013470	   -0.021491	   -0.015975	   -0.037467	    0.105393	    0.123726	    0.229119
     6.150	0	0	    0	   -0.009933	    0.010555	    0.000621	   -0.047375	   -0.019096	   -0.066471	   -0.017030	   -0.008414	   -0.025445	   -0.012963	   -0.003428	   -0.016391	   -0.027685	   -0.008483	   -0.036167	   -0.059710	   -0.023318	   -0.083028	    0.054370	    0.055608	    0.109977	    0.056625	    0.126235	    0.182860	    0.008940	    0.015579	    0.024519	    0.008717	    0.010206	    0.018923	   -0.002644	   -0.000885	   -0.003529	   -0.005286	    0.001820	   -0.003465	   -0.021521	    0.001034	   -0.020487	    0.026546	    0.020769	    0.047315	    0.075887	    0.125659	    0.201546	    0.159140	    0.193524	    0.352664	   -0.023772	   -0.019963	   -0.043735	   -0.011687	   -0.009320	   -0.021008	   -0.038804	   -0.024750	   -0.063553	   -0.008669	   -0.008726	   -0.017395	   -0.023114	   -0.018786	   -0.041901	    0.100520	    0.126010	    0.226530
     6.225	0	0	    0	   -0.010316	    0.008480	   -0.001836	   -0.046182	   -0.020911	   -0.067093	   -0.017048	   -0.008294	   -0.025342	   -0.013940	   -0.003021	   -0.016961	   -0.028785	   -0.009373	   -0.038158	   -0.058498	   -0.025102	   -0.083600	    0.057657	    0.051204	    0.108861	    0.055830	    0.126294	    0.182124	    0.008562	    0.013940	    0.022501	    0.010877	    0.008868	    0.019745	   -0.000114	   -0.001018	   -0.001132	   -0.008412	    0.002056	   -0.006356	   -0.021611	   -0.001160	   -0.022771	    0.025253	    0.026062	    0.051315	    0.074583	    0.127087	    0.201670	    0.157366	    0.193680	    0.351046	   -0.024436	   -0.020763	   -0.045199	   -0.006309	   -0.011133	   -0.017442	   -0.033301	   -0.027248	   -0.060549	   -0.009138	   -0.011486	   -0.020623	   -0.023578	   -0.018796	   -0.042374	    0.106284	    0.122166	    0.228450
     6.300	0	0	    0	   -0.007351	    0.008592	    0.001240	   -0.041981	   -0.019874	   -0.061855	   -0.012895	   -0.007588	   -0.020483	   -0.011113	   -0.003153	   -0.014266	   -0.024279	   -0.009694	   -0.033973	   -0.051555	   -0.022905	   -0.074460	    0.064415	    0.059665	    0.124080	    0.056886	    0.125769	    0.182655	    0.013110	    0.015477	    0.028587	    0.016251	    0.010018	    0.026269	    0.003875	   -0.000547	    0.003328	   -0.000541	    0.000971	    0.000430	   -0.009565	    0.000534	   -0.009031	    0.029404	    0.030013	    0.059417	    0.079842	    0.125096	    0.204938	    0.159990	    0.193769	    0.353759	   -0.017222	   -0.020243	   -0.037465	    0.000413	   -0.008455	   -0.008042	   -0.025581	   -0.023651	   -0.049233	    0.003309	   -0.008943	   -0.005634	   -0.013205	   -0.016789	   -0.029994	    0.109781	    0.121799	    0.231580
     6.375	0	0	    0	   -0.007327	    0.011775	    0.004448	   -0.041661	   -0.019022	   -0.060684	   -0.012947	   -0.007366	   -0.020313	   -0.009084	   -0.003145	   -0.012229	   -0.021271	   -0.007606	   -0.028876	   -0.050212	   -0.021754	   -0.071966	    0.069014	    0.054873	    0.123888	    0.056865	    0.127158	    0.184023	    0.015764	    0.015332	    0.031096	    0.017010	    0.010536	    0.027546	    0.003703	   -0.000845	    0.002858	    0.001696	    0.004103	    0.005799	   -0.006983	    0.002764	   -0.004219	    0.032205	    0.030730	    0.062936	    0.079093	    0.126822	    0.205915	    0.160754	    0.193458	    0.354212	   -0.016175	   -0.018623	   -0.034798	    0.001500	   -0.007950	   -0.006450	   -0.024782	   -0.023035	   -0.047817	    0.006088	   -0.007029	   -0.000941	   -0.010457	   -0.014669	   -0.025126	    0.105879	    0.126285	    0.232165
     6.450	0	0	    0	   -0.006122	    0.011217	    0.005095	   -0.041272	   -0.019203	   -0.060475	   -0.012455	   -0.008010	   -0.020465	   -0.008175	   -0.004120	   -0.012295	   -0.020378	   -0.007786	   -0.028164	   -0.051059	   -0.021467	   -0.072526	    0.062250	    0.060756	    0.123007	    0.057293	    0.126024	    0.183317	    0.014660	    0.016311	    0.030971	    0.016896	    0.010758	    0.027654	    0.003547	   -0.001378	    0.002169	    0.003516	    0.002951	    0.006467	   -0.007215	    0.003432	   -0.003783	    0.031993	    0.028105	    0.060097	    0.079838	    0.124577	    0.204415	    0.160205	    0.193436	    0.353641	   -0.016892	   -0.017778	   -0.034670	    0.000046	   -0.007300	   -0.007254	   -0.025768	   -0.022995	   -0.048762	    0.005977	   -0.006714	   -0.000737	   -0.011223	   -0.014302	   -0.025524	    0.107979	    0.123021	    0.231001
     6.525	0	0	    0	   -0.006287	    0.010453	    0.004166	   -0.041584	   -0.019592	   -0.061176	   -0.013166	   -0.007734	   -0.020900	   -0.008577	   -0.004253	   -0.012830	   -0.021543	   -0.007214	   -0.028758	   -0.050946	   -0.021972	   -0.072918	    0.064190	    0.056342	    0.120532	    0.056933	    0.126035	    0.182968	    0.013681	    0.016875	    0.030556	    0.016172	    0.010476	    0.026649	    0.002381	   -0.001254	    0.001126	    0.003131	    0.002274	    0.005405	   -0.007960	    0.002827	   -0.005133	    0.032134	    0.029853	    0.061987	    0.080945	    0.124264	    0.205210	    0.160003	    0.193149	    0.353153	   -0.016398	   -0.018911	   -0.035309	    0.000355	   -0.007848	   -0.007493	   -0.025777	   -0.023226	   -0.049003	    0.004628	   -0.006856	   -0.002228	   -0.010430	   -0.016125	   -0.026555	    0.104956	    0.126864	    0.231820
     6.600	0	0	    0	   -0.006111	    0.010343	    0.004232	   -0.041393	   -0.019685	   -0.061078	   -0.012477	   -0.008450	   -0.020928	   -0.009212	   -0.003528	   -0.012740	   -0.020416	   -0.007759	   -0.028174	   -0.050580	   -0.022171	   -0.072751	    0.066427	    0.053871	    0.120298	    0.057178	    0.125437	    0.182616	    0.015588	    0.014750	    0.030338	    0.016993	    0.009960	    0.026953	    0.002250	   -0.002062	    0.000188	    0.003791	    0.001825	    0.005616	   -0.008099	    0.003580	   -0.004519	    0.032798	    0.031225	    0.064023	    0.079493	    0.124723	    0.204216	    0.159389	    0.193627	    0.353016	   -0.016439	   -0.018202	   -0.034641	    0.000113	   -0.008224	   -0.008110	   -0.026396	   -0.023244	   -0.049640	    0.006362	   -0.007921	   -0.001559	   -0.010981	   -0.014394	   -0.025374	    0.106527	    0.126822	    0.233349
     6.675	0	0	    0	   -0.007404	    0.010192	    0.002788	   -0.042270	   -0.020120	   -0.062391	   -0.013303	   -0.008270	   -0.021573	   -0.009474	   -0.003859	   -0.013332	   -0.021292	   -0.007823	   -0.029115	   -0.052735	   -0.021723	   -0.074457	    0.063045	    0.056113	    0.119158	    0.055216	    0.127004	    0.182220	    0.013112	    0.015842	    0.028954	    0.015395	    0.010195	    0.025590	    0.001041	   -0.002070	   -0.001029	    0.001652	    0.002982	    0.004634	   -0.009940	    0.003195	   -0.006745	    0.029455	    0.028729	    0.058185	    0.077820	    0.124487	    0.202307	    0.159084	    0.193391	    0.352475	   -0.017878	   -0.018612	   -0.036490	   -0.002300	   -0.008047	   -0.010347	   -0.028617	   -0.023329	   -0.051946	    0.003451	   -0.007063	   -0.003612	   -0.013112	   -0.014781	   -0.027893	    0.106670	    0.122882	    0.229552
     6.750	0	0	    0	   -0.008128	    0.009863	    0.001735	   -0.043590	   -0.020086	   -0.063676	   -0.014674	   -0.008222	   -0.022896	   -0.009907	   -0.004537	   -0.014443	   -0.022875	   -0.007727	   -0.030602	   -0.054267	   -0.022997	   -0.077265	    0.061857	    0.051761	    0.113618	    0.055306	    0.125220	    0.180526	    0.013576	    0.014082	    0.027659	    0.014486	    0.009521	    0.024007	   -0.000027	   -0.002539	   -0.002566	    0.000894	    0.000939	    0.001833	   -0.012496	    0.002914	   -0.009582	    0.028508	    0.028369	    0.056877	    0.075334	    0.126658	    0.201992	    0.157148	    0.193998	    0.351147	   -0.018909	   -0.018506	   -0.037415	   -0.004178	   -0.008775	   -0.012953	   -0.031049	   -0.023774	   -0.054823	    0.000899	   -0.007830	   -0.006931	   -0.014751	   -0.015163	   -0.029913	    0.103847	    0.124263	    0.228109
     6.825	0	0	    0	   -0.009733	    0.009327	   -0.000406	   -0.044556	   -0.020167	   -0.064723	   -0.015604	   -0.008551	   -0.024154	   -0.011357	   -0.004318	   -0.015675	   -0.024987	   -0.007438	   -0.032425	   -0.055893	   -0.023368	   -0.079260	    0.058252	    0.055852	    0.114104	    0.052655	    0.126801	    0.179455	    0.011964	    0.014294	    0.026258	    0.012601	    0.009522	    0.022123	   -0.001808	   -0.002455	   -0.004263	   -0.001911	    0.001869	   -0.000042	   -0.014549	    0.001575	   -0.012974	    0.028435	    0.026955	    0.055390	    0.074769	    0.125338	    0.200107	    0.157361	    0.192523	    0.349884	   -0.018810	   -0.020736	   -0.039545	   -0.006412	   -0.009218	   -0.015629	   -0.033101	   -0.024639	   -0.057739	   -0.001352	   -0.009304	   -0.010657	   -0.015043	   -0.017859	   -0.032902	    0.103732	    0.121949	    0.225681
     6.900	0	0	    0	   -0.010617	    0.008866	   -0.001751	   -0.046908	   -0.019072	   -0.065980	   -0.017371	   -0.008267	   -0.025638	   -0.012743	   -0.004335	   -0.017077	   -0.026323	   -0.008096	   -0.034418	   -0.058746	   -0.023248	   -0.081994	    0.053262	    0.055031	    0.108293	    0.052873	    0.125481	    0.178355	    0.011400	    0.013128	    0.024528	    0.010891	    0.009439	    0.020330	   -0.002771	   -0.003072	   -0.005843	   -0.005087	    0.002166	   -0.002921	   -0.017546	    0.001345	   -0.016201	    0.020415	    0.032228	    0.052643	    0.071873	    0.126119	    0.197992	    0.156633	    0.191622	    0.348255	   -0.021040	   -0.020771	   -0.041811	   -0.008310	   -0.009765	   -0.018074	   -0.035391	   -0.024952	   -0.060343	   -0.005390	   -0.008934	   -0.014324	   -0.016711	   -0.018797	   -0.035508	    0.102634	    0.120579	    0.223212
     6.975	0	0	    0	   -0.011651	    0.008156	   -0.003495	   -0.048597	   -0.018526	   -0.067122	   -0.018475	   -0.007888	   -0.026363	   -0.013419	   -0.004417	   -0.017835	   -0.027454	   -0.008466	   -0.035920	   -0.062014	   -0.021806	   -0.083819	    0.045599	    0.061706	    0.107305	    0.053189	    0.123575	    0.176764	    0.008611	    0.014674	    0.023285	    0.009308	    0.009801	    0.019109	   -0.003617	   -0.003482	   -0.007099	   -0.005422	    0.000448	   -0.004973	   -0.020019	    0.001089	   -0.018930	    0.019284	    0.031238	    0.050522	    0.072547	    0.124696	    0.197243	    0.154272	    0.192590	    0.346861	   -0.024358	   -0.018930	   -0.043289	   -0.009874	   -0.010091	   -0.019965	   -0.037256	   -0.025434	   -0.062689	   -0.007885	   -0.008914	   -0.016798	   -0.021411	   -0.016678	   -0.038090	    0.094801	    0.125555	    0.220356
     7.050	0	0	    0	   -0.013932	    0.008934	   -0.004999	   -0.048533	   -0.019993	   -0.068527	   -0.019062	   -0.008744	   -0.027807	   -0.015294	   -0.004033	   -0.019328	   -0.029254	   -0.008454	   -0.037708	   -0.062191	   -0.024193	   -0.086384	    0.051075	    0.053694	    0.104769	    0.052024	    0.123053	    0.175077	    0.007250	    0.014708	    0.021957	    0.008017	    0.009158	    0.017174	   -0.004671	   -0.003661	   -0.008332	   -0.008043	    0.000956	   -0.007087	   -0.022611	    0.000411	   -0.022200	    0.021340	    0.027768	    0.049109	    0.072410	    0.123219	    0.195629	    0.154167	    0.191162	    0.345329	   -0.023070	   -0.022477	   -0.045547	   -0.012208	   -0.010565	   -0.022773	   -0.039786	   -0.025906	   -0.065692	   -0.010435	   -0.010183	   -0.020619	   -0.022532	   -0.017746	   -0.040278	    0.100474	    0.120584	    0.221058
     7.125	0	0	    0	   -0.013291	    0.007952	   -0.005338	   -0.045545	   -0.021734	   -0.067279	   -0.016478	   -0.009906	   -0.026383	   -0.015412	   -0.004652	   -0.020064	   -0.029598	   -0.009457	   -0.039055	   -0.058744	   -0.025657	   -0.084400	    0.061572	    0.047548	    0.109120	    0.051662	    0.123290	    0.174951	    0.008453	    0.013555	    0.022009	    0.011801	    0.008161	    0.019962	   -0.001027	   -0.004662	   -0.005688	   -0.008496	   -0.000284	   -0.008780	   -0.020149	   -0.001623	   -0.021772	    0.028750	    0.025033	    0.053783	    0.074665	    0.123455	    0.198120	    0.154266	    0.190636	    0.344901	   -0.022195	   -0.021591	   -0.043786	   -0.003886	   -0.011806	   -0.015692	   -0.031545	   -0.027346	   -0.058891	   -0.007294	   -0.012716	   -0.020011	   -0.020516	   -0.019585	   -0.040101	    0.101459	    0.120845	    0.222304
     7.200	0	0	    0	   -0.008548	    0.007393	   -0.001155	   -0.042670	   -0.020022	   -0.062692	   -0.013989	   -0.008752	   -0.022741	   -0.011282	   -0.005021	   -0.016303	   -0.023725	   -0.009455	   -0.033181	   -0.053343	   -0.022906	   -0.076249	    0.061467	    0.058099	    0.119566	    0.054344	    0.123254	    0.177598	    0.012132	    0.015237	    0.027369	    0.015650	    0.009496	    0.025147	    0.001041	   -0.003573	   -0.002532	   -0.000788	   -0.000480	   -0.001269	   -0.009500	    0.001462	   -0.008039	    0.027707	    0.034141	    0.061848	    0.075053	    0.124968	    0.200021	    0.155858	    0.192207	    0.348065	   -0.018516	   -0.018953	   -0.037470	   -0.000095	   -0.009220	   -0.009315	   -0.027128	   -0.024029	   -0.051157	    0.001569	   -0.008245	   -0.006676	   -0.010964	   -0.017228	   -0.028192	    0.104547	    0.120757	    0.225304
     7.275	0	0	    0	   -0.009291	    0.009056	   -0.000235	   -0.043636	   -0.018712	   -0.062348	   -0.013472	   -0.008792	   -0.022264	   -0.010154	   -0.004639	   -0.014793	   -0.022324	   -0.007655	   -0.029979	   -0.052969	   -0.022089	   -0.075058	    0.059864	    0.059057	    0.118921	    0.052436	    0.125756	    0.178192	    0.014151	    0.014237	    0.028388	    0.016058	    0.009684	    0.025742	    0.000865	   -0.003558	   -0.002693	    0.000242	    0.001956	    0.002198	   -0.007801	    0.002266	   -0.005536	    0.028438	    0.032207	    0.060645	    0.074762	    0.125596	    0.200357	    0.155682	    0.192824	    0.348505	   -0.017410	   -0.019092	   -0.036502	    0.000085	   -0.008709	   -0.008624	   -0.027099	   -0.023717	   -0.050816	    0.004350	   -0.008784	   -0.004434	   -0.009944	   -0.015949	   -0.025894	    0.104295	    0.120240	    0.224535
     7.350	0	0	    0	   -0.010278	    0.010022	   -0.000256	   -0.043957	   -0.019183	   -0.063140	   -0.014937	   -0.008057	   -0.022994	   -0.009850	   -0.005307	   -0.015157	   -0.022666	   -0.007040	   -0.029705	   -0.054704	   -0.021655	   -0.076359	    0.051025	    0.064925	    0.115950	    0.053014	    0.124791	    0.177805	    0.011433	    0.016878	    0.028311	    0.014638	    0.010509	    0.025147	    0.000006	   -0.003475	   -0.003469	    0.000125	    0.002310	    0.002435	   -0.010916	    0.004862	   -0.006054	    0.026523	    0.034036	    0.060560	    0.072774	    0.127042	    0.199816	    0.155392	    0.192875	    0.348266	   -0.017484	   -0.019060	   -0.036544	   -0.001320	   -0.008856	   -0.010176	   -0.028868	   -0.023353	   -0.052221	    0.001381	   -0.005888	   -0.004507	   -0.012786	   -0.013345	   -0.026131	    0.104263	    0.121365	    0.225628
     7.425	0	0	    0	   -0.011840	    0.010774	   -0.001066	   -0.043192	   -0.019876	   -0.063068	   -0.013493	   -0.009594	   -0.023088	   -0.011218	   -0.004610	   -0.015828	   -0.023245	   -0.007206	   -0.030451	   -0.054067	   -0.022162	   -0.076230	    0.057618	    0.057354	    0.114972	    0.052289	    0.124808	    0.177097	    0.013635	    0.013515	    0.027149	    0.016295	    0.009243	    0.025538	    0.000466	   -0.004278	   -0.003812	   -0.001218	    0.002347	    0.001130	   -0.009485	    0.002849	   -0.006636	    0.029404	    0.030013	    0.059417	    0.069552	    0.128850	    0.198402	    0.155547	    0.192497	    0.348044	   -0.017164	   -0.019836	   -0.037000	   -0.000708	   -0.009234	   -0.009942	   -0.028619	   -0.023870	   -0.052489	    0.002193	   -0.007751	   -0.005558	   -0.011361	   -0.016566	   -0.027927	    0.102335	    0.120698	    0.223034
     7.500	0	0	    0	   -0.009174	    0.008020	   -0.001154	   -0.044087	   -0.019562	   -0.063650	   -0.013950	   -0.009265	   -0.023215	   -0.010544	   -0.005172	   -0.015716	   -0.022185	   -0.007729	   -0.029915	   -0.053536	   -0.022629	   -0.076165	    0.060747	    0.053420	    0.114167	    0.054078	    0.122773	    0.176851	    0.012194	    0.014632	    0.026826	    0.015653	    0.009357	    0.025010	   -0.000591	   -0.003702	   -0.004293	    0.000059	    0.001939	    0.001998	   -0.009772	    0.003493	   -0.006279	    0.030828	    0.028179	    0.059007	    0.070460	    0.129518	    0.199978	    0.156667	    0.191566	    0.348233	   -0.017393	   -0.019892	   -0.037285	   -0.001772	   -0.009051	   -0.010822	   -0.029741	   -0.023789	   -0.053529	    0.002225	   -0.007521	   -0.005297	   -0.011716	   -0.015843	   -0.027560	    0.101019	    0.124646	    0.225666
     7.575	0	0	    0	   -0.010900	    0.008639	   -0.002261	   -0.045022	   -0.019806	   -0.064828	   -0.015066	   -0.009048	   -0.024113	   -0.011150	   -0.004993	   -0.016143	   -0.023679	   -0.007277	   -0.030956	   -0.055595	   -0.022726	   -0.078321	    0.056024	    0.054511	    0.110535	    0.051798	    0.124919	    0.176716	    0.011225	    0.014393	    0.025618	    0.013720	    0.009223	    0.022943	   -0.002387	   -0.003767	   -0.006154	   -0.001576	    0.001621	    0.000046	   -0.011861	    0.002664	   -0.009198	    0.023232	    0.032398	    0.055629	    0.072436	    0.124867	    0.197303	    0.156043	    0.192248	    0.348291	   -0.018435	   -0.020743	   -0.039178	   -0.003961	   -0.009448	   -0.013410	   -0.032145	   -0.024009	   -0.056154	   -0.000632	   -0.007643	   -0.008276	   -0.013679	   -0.015948	   -0.029627	    0.101701	    0.120174	    0.221875
     7.650	0	0	    0	   -0.010840	    0.007686	   -0.003154	   -0.046805	   -0.019148	   -0.065953	   -0.017014	   -0.008744	   -0.025758	   -0.011419	   -0.005882	   -0.017301	   -0.024915	   -0.007883	   -0.032797	   -0.056181	   -0.024563	   -0.080745	    0.052996	    0.056375	    0.109371	    0.052449	    0.123207	    0.175656	    0.010720	    0.013888	    0.024608	    0.012979	    0.008529	    0.021508	   -0.003255	   -0.005254	   -0.008509	   -0.002950	    0.000549	   -0.002401	   -0.014205	    0.001819	   -0.012386	    0.024102	    0.031342	    0.055444	    0.073412	    0.124218	    0.197631	    0.155532	    0.192645	    0.348176	   -0.020327	   -0.019910	   -0.040237	   -0.006241	   -0.009991	   -0.016232	   -0.034123	   -0.024792	   -0.058916	   -0.001158	   -0.009980	   -0.011137	   -0.013654	   -0.018069	   -0.031723	    0.101131	    0.121386	    0.222517
     7.725	0	0	    0	   -0.014097	    0.008549	   -0.005548	   -0.047775	   -0.019788	   -0.067563	   -0.017881	   -0.009541	   -0.027421	   -0.014188	   -0.004569	   -0.018757	   -0.027205	   -0.007097	   -0.034302	   -0.059550	   -0.022878	   -0.082428	    0.051065	    0.053023	    0.104088	    0.048935	    0.125340	    0.174276	    0.009306	    0.013194	    0.022500	    0.011713	    0.007848	    0.019561	   -0.005321	   -0.006027	   -0.011348	   -0.006480	    0.001570	   -0.004910	   -0.017579	    0.001960	   -0.015619	    0.021553	    0.031069	    0.052622	    0.070787	    0.124256	    0.195043	    0.154116	    0.192988	    0.347104	   -0.021881	   -0.020843	   -0.042724	   -0.008064	   -0.010483	   -0.018547	   -0.036138	   -0.025215	   -0.061353	   -0.005070	   -0.009733	   -0.014802	   -0.018003	   -0.016585	   -0.034588	    0.098026	    0.122093	    0.220120
     7.800	0	0	    0	   -0.015411	    0.008976	   -0.006435	   -0.049896	   -0.018884	   -0.068780	   -0.019697	   -0.009005	   -0.028702	   -0.014422	   -0.005087	   -0.019509	   -0.028254	   -0.007818	   -0.036072	   -0.061816	   -0.022688	   -0.084504	    0.050608	    0.052320	    0.102928	    0.049576	    0.124187	    0.173764	    0.007484	    0.013711	    0.021195	    0.009480	    0.008836	    0.018316	   -0.006548	   -0.006603	   -0.013150	   -0.008285	    0.001774	   -0.006511	   -0.020177	    0.001708	   -0.018470	    0.021411	    0.030215	    0.051626	    0.068668	    0.126510	    0.195177	    0.153183	    0.193209	    0.346392	   -0.023376	   -0.020232	   -0.043609	   -0.009644	   -0.011136	   -0.020780	   -0.038318	   -0.025549	   -0.063868	   -0.008921	   -0.008646	   -0.017567	   -0.019966	   -0.017599	   -0.037565	    0.098509	    0.120265	    0.218775
     7.875	0	0	    0	   -0.015320	    0.006799	   -0.008521	   -0.049712	   -0.020415	   -0.070127	   -0.019767	   -0.010250	   -0.030017	   -0.015380	   -0.005351	   -0.020731	   -0.029827	   -0.007801	   -0.037628	   -0.062384	   -0.024167	   -0.086550	    0.051214	    0.047832	    0.099046	    0.049046	    0.123580	    0.172626	    0.006020	    0.014009	    0.020029	    0.009422	    0.007230	    0.016652	   -0.007990	   -0.006549	   -0.014539	   -0.009198	   -0.000401	   -0.009599	   -0.022912	    0.001392	   -0.021520	    0.019649	    0.030012	    0.049662	    0.063850	    0.128438	    0.192288	    0.151891	    0.194003	    0.345894	   -0.024070	   -0.021298	   -0.045368	   -0.012503	   -0.010664	   -0.023167	   -0.040643	   -0.025644	   -0.066287	   -0.011452	   -0.009736	   -0.021187	   -0.023123	   -0.015771	   -0.038894	    0.093473	    0.124070	    0.217543
     7.950	0	0	    0	   -0.017916	    0.008286	   -0.009630	   -0.051523	   -0.019747	   -0.071269	   -0.020938	   -0.009935	   -0.030873	   -0.017360	   -0.004073	   -0.021433	   -0.031428	   -0.008076	   -0.039504	   -0.064464	   -0.024742	   -0.089206	    0.045392	    0.049474	    0.094867	    0.047386	    0.123715	    0.171100	    0.004343	    0.014078	    0.018421	    0.007406	    0.007465	    0.014871	   -0.008930	   -0.006967	   -0.015897	   -0.012861	    0.001747	   -0.011114	   -0.025760	    0.000596	   -0.025164	    0.020356	    0.031359	    0.051714	    0.065679	    0.124149	    0.189828	    0.151773	    0.192707	    0.344480	   -0.026301	   -0.020874	   -0.047174	   -0.012934	   -0.011806	   -0.024741	   -0.041319	   -0.026655	   -0.067974	   -0.014036	   -0.010622	   -0.024658	   -0.024316	   -0.018109	   -0.042425	    0.096090	    0.120867	    0.216957
     8.025	0	0	    0	   -0.016479	    0.006973	   -0.009507	   -0.046576	   -0.021392	   -0.067968	   -0.017565	   -0.010836	   -0.028400	   -0.016568	   -0.005239	   -0.021806	   -0.029926	   -0.009358	   -0.039284	   -0.057293	   -0.025832	   -0.083124	    0.057085	    0.049994	    0.107079	    0.047559	    0.123775	    0.171334	    0.007552	    0.012645	    0.020198	    0.013212	    0.006326	    0.019538	   -0.004532	   -0.007982	   -0.012514	   -0.010966	   -0.000624	   -0.011589	   -0.018129	   -0.001560	   -0.019689	    0.031505	    0.026114	    0.057620	    0.068436	    0.123928	    0.192364	    0.153210	    0.191649	    0.344859	   -0.022277	   -0.021731	   -0.044008	   -0.003403	   -0.011697	   -0.015099	   -0.031487	   -0.026284	   -0.057770	   -0.006836	   -0.012455	   -0.019291	   -0.018640	   -0.019220	   -0.037860	    0.098894	    0.120073	    0.218967
     8.100	0	0	    0	   -0.013607	    0.009075	   -0.004532	   -0.045827	   -0.018851	   -0.064679	   -0.016466	   -0.009615	   -0.026081	   -0.013451	   -0.004974	   -0.018425	   -0.025096	   -0.008181	   -0.033278	   -0.054611	   -0.023216	   -0.077827	    0.058058	    0.053601	    0.111659	    0.048823	    0.124528	    0.173351	    0.009964	    0.014962	    0.024927	    0.014293	    0.008421	    0.022713	   -0.004723	   -0.006930	   -0.011654	   -0.005043	    0.000999	   -0.004044	   -0.010355	    0.001874	   -0.008481	    0.029541	    0.032881	    0.062422	    0.066506	    0.128655	    0.195161	    0.154688	    0.192572	    0.347260	   -0.019487	   -0.019609	   -0.039096	   -0.001137	   -0.009803	   -0.010940	   -0.028915	   -0.023586	   -0.052501	    0.001030	   -0.009105	   -0.008074	   -0.012402	   -0.016566	   -0.028968	    0.096842	    0.123262	    0.220104
     8.175	0	0	    0	   -0.013882	    0.009605	   -0.004277	   -0.045458	   -0.019096	   -0.064554	   -0.015491	   -0.010384	   -0.025875	   -0.012371	   -0.005365	   -0.017736	   -0.024101	   -0.007080	   -0.031181	   -0.054344	   -0.022361	   -0.076705	    0.056209	    0.055211	    0.111420	    0.049530	    0.123927	    0.173456	    0.009857	    0.015011	    0.024869	    0.014852	    0.007836	    0.022688	   -0.003721	   -0.007741	   -0.011462	   -0.003825	    0.001385	   -0.002440	   -0.010434	    0.003254	   -0.007179	    0.030854	    0.030890	    0.061744	    0.068184	    0.125683	    0.193866	    0.153310	    0.194012	    0.347322	   -0.018361	   -0.020012	   -0.038373	   -0.001225	   -0.009613	   -0.010837	   -0.029304	   -0.023264	   -0.052568	    0.001237	   -0.008119	   -0.006881	   -0.012318	   -0.015898	   -0.028217	    0.098940	    0.121320	    0.220261
     8.250	0	0	    0	   -0.014183	    0.009609	   -0.004574	   -0.045184	   -0.019715	   -0.064899	   -0.015927	   -0.010337	   -0.026264	   -0.013530	   -0.004898	   -0.018428	   -0.024408	   -0.006882	   -0.031290	   -0.053822	   -0.023936	   -0.077758	    0.060399	    0.049336	    0.109735	    0.049866	    0.123916	    0.173782	    0.011176	    0.013008	    0.024184	    0.014156	    0.008010	    0.022166	   -0.004857	   -0.007677	   -0.012534	   -0.004375	    0.001716	   -0.002660	   -0.011514	    0.002815	   -0.008700	    0.030697	    0.030588	    0.061285	    0.068267	    0.124631	    0.192899	    0.154510	    0.192824	    0.347334	   -0.018475	   -0.020803	   -0.039278	   -0.002258	   -0.009944	   -0.012201	   -0.030020	   -0.023404	   -0.053424	    0.000572	   -0.008851	   -0.008278	   -0.011890	   -0.017498	   -0.029388	    0.098828	    0.119732	    0.218560
     8.325	0	0	    0	   -0.012830	    0.007449	   -0.005381	   -0.046431	   -0.018181	   -0.064612	   -0.016009	   -0.009756	   -0.025765	   -0.012484	   -0.005862	   -0.018347	   -0.024250	   -0.007042	   -0.031293	   -0.054870	   -0.021743	   -0.076613	    0.051895	    0.058709	    0.110604	    0.048964	    0.124785	    0.173750	    0.010664	    0.013804	    0.024468	    0.014934	    0.008169	    0.023103	   -0.003857	   -0.008283	   -0.012140	   -0.003817	    0.001076	   -0.002741	   -0.011202	    0.003057	   -0.008146	    0.029851	    0.032373	    0.062224	    0.071070	    0.122616	    0.193686	    0.154395	    0.193420	    0.347816	   -0.018656	   -0.019885	   -0.038541	   -0.001777	   -0.009375	   -0.011152	   -0.029401	   -0.023585	   -0.052987	   -0.000096	   -0.007116	   -0.007212	   -0.011534	   -0.017861	   -0.029395	    0.096185	    0.121972	    0.218157
     8.400	0	0	    0	   -0.014485	    0.009488	   -0.004997	   -0.047059	   -0.018149	   -0.065208	   -0.016819	   -0.008995	   -0.025814	   -0.013202	   -0.005127	   -0.018329	   -0.024644	   -0.006375	   -0.031019	   -0.056350	   -0.020748	   -0.077098	    0.048765	    0.062300	    0.111065	    0.049059	    0.124980	    0.174039	    0.009685	    0.014576	    0.024262	    0.013581	    0.008182	    0.021763	   -0.005263	   -0.007890	   -0.013153	   -0.004330	    0.001493	   -0.002837	   -0.012742	    0.004323	   -0.008419	    0.027309	    0.034668	    0.061977	    0.071449	    0.121069	    0.192519	    0.153721	    0.194003	    0.347724	   -0.020059	   -0.019391	   -0.039449	   -0.003357	   -0.009612	   -0.012969	   -0.030677	   -0.023460	   -0.054137	   -0.000916	   -0.007105	   -0.008021	   -0.014829	   -0.014622	   -0.029451	    0.098879	    0.120283	    0.219162
     8.475	0	0	    0	   -0.015318	    0.009305	   -0.006012	   -0.047278	   -0.018793	   -0.066071	   -0.016331	   -0.010459	   -0.026790	   -0.013456	   -0.005614	   -0.019070	   -0.025623	   -0.006823	   -0.032446	   -0.055827	   -0.022834	   -0.078661	    0.054618	    0.050864	    0.105482	    0.047990	    0.125131	    0.173121	    0.008610	    0.014601	    0.023211	    0.012422	    0.007343	    0.019765	   -0.005838	   -0.008300	   -0.014139	   -0.005960	    0.001035	   -0.004925	   -0.016000	    0.003347	   -0.012652	    0.027276	    0.030106	    0.057382	    0.066358	    0.123370	    0.189728	    0.152112	    0.194408	    0.346519	   -0.020983	   -0.020366	   -0.041350	   -0.005028	   -0.010307	   -0.015335	   -0.032612	   -0.023711	   -0.056323	   -0.004115	   -0.006333	   -0.010448	   -0.018198	   -0.014404	   -0.032602	    0.099946	    0.116849	    0.216795
     8.550	0	0	    0	   -0.014378	    0.006572	   -0.007806	   -0.048575	   -0.019110	   -0.067685	   -0.017606	   -0.009893	   -0.027499	   -0.013348	   -0.006291	   -0.019639	   -0.026423	   -0.007978	   -0.034402	   -0.058098	   -0.022191	   -0.080289	    0.050708	    0.053504	    0.104211	    0.048542	    0.124015	    0.172556	    0.007142	    0.014504	    0.021646	    0.011549	    0.007245	    0.018794	   -0.006538	   -0.008568	   -0.015106	   -0.008061	    0.001383	   -0.006678	   -0.017529	    0.001304	   -0.016224	    0.025365	    0.030320	    0.055684	    0.066701	    0.123992	    0.190693	    0.152318	    0.193401	    0.345719	   -0.021687	   -0.020674	   -0.042361	   -0.006365	   -0.010959	   -0.017324	   -0.034855	   -0.023850	   -0.058705	   -0.005831	   -0.008167	   -0.013998	   -0.017418	   -0.018211	   -0.035629	    0.096691	    0.120424	    0.217115
     8.625	0	0	    0	   -0.017445	    0.009306	   -0.008139	   -0.050050	   -0.018753	   -0.068803	   -0.019033	   -0.009448	   -0.028481	   -0.014739	   -0.005920	   -0.020659	   -0.027348	   -0.007883	   -0.035231	   -0.059826	   -0.022467	   -0.082294	    0.043659	    0.058458	    0.102117	    0.048117	    0.124315	    0.172432	    0.006925	    0.013591	    0.020516	    0.009759	    0.006833	    0.016592	   -0.008095	   -0.008286	   -0.016381	   -0.009146	    0.000459	   -0.008688	   -0.020940	    0.002471	   -0.018469	    0.025890	    0.031543	    0.057432	    0.065221	    0.125980	    0.191200	    0.151810	    0.193068	    0.344878	   -0.023333	   -0.020931	   -0.044264	   -0.008841	   -0.010764	   -0.019605	   -0.036824	   -0.024331	   -0.061154	   -0.008426	   -0.008818	   -0.017244	   -0.020318	   -0.016213	   -0.036532	    0.095275	    0.122742	    0.218017
     8.700	0	0	    0	   -0.017676	    0.008234	   -0.009442	   -0.050953	   -0.018935	   -0.069888	   -0.019488	   -0.010367	   -0.029855	   -0.015992	   -0.005663	   -0.021655	   -0.029510	   -0.007720	   -0.037231	   -0.062673	   -0.022353	   -0.085026	    0.043052	    0.056707	    0.099758	    0.046873	    0.124375	    0.171247	    0.006254	    0.013015	    0.019270	    0.007787	    0.007067	    0.014854	   -0.009334	   -0.008321	   -0.017655	   -0.010722	    0.000203	   -0.010519	   -0.021979	    0.000130	   -0.021849	    0.017712	    0.031488	    0.049200	    0.060053	    0.128427	    0.188480	    0.151121	    0.192734	    0.343855	   -0.025354	   -0.021128	   -0.046482	   -0.010973	   -0.011022	   -0.021995	   -0.039202	   -0.024357	   -0.063559	   -0.011403	   -0.008990	   -0.020393	   -0.023467	   -0.017076	   -0.040543	    0.089405	    0.121988	    0.211393
     8.775	0	0	    0	   -0.019124	    0.008281	   -0.010843	   -0.052415	   -0.018821	   -0.071236	   -0.020312	   -0.010485	   -0.030797	   -0.017356	   -0.005325	   -0.022682	   -0.030646	   -0.008225	   -0.038871	   -0.063561	   -0.023657	   -0.087218	    0.043001	    0.052981	    0.095982	    0.046277	    0.124613	    0.170890	    0.005309	    0.012526	    0.017835	    0.007854	    0.005896	    0.013750	   -0.010292	   -0.008214	   -0.018506	   -0.012867	    0.000038	   -0.012829	   -0.025808	    0.000403	   -0.025405	    0.016962	    0.034271	    0.051234	    0.060541	    0.126332	    0.186873	    0.150428	    0.192349	    0.342777	   -0.026535	   -0.021254	   -0.047788	   -0.012034	   -0.011115	   -0.023149	   -0.040083	   -0.025238	   -0.065321	   -0.013477	   -0.010835	   -0.024311	   -0.023577	   -0.019296	   -0.042873	    0.089986	    0.121755	    0.211741
     8.850	0	0	    0	   -0.017645	    0.007260	   -0.010385	   -0.047914	   -0.019863	   -0.067777	   -0.017550	   -0.010065	   -0.027616	   -0.017020	   -0.005590	   -0.022610	   -0.029722	   -0.009652	   -0.039373	   -0.057412	   -0.024880	   -0.082291	    0.054809	    0.051889	    0.106698	    0.046766	    0.124734	    0.171500	    0.007098	    0.012980	    0.020078	    0.012658	    0.006086	    0.018744	   -0.005858	   -0.009051	   -0.014908	   -0.011633	   -0.000911	   -0.012545	   -0.019305	   -0.002665	   -0.021970	    0.030676	    0.028429	    0.059105	    0.064720	    0.123776	    0.188495	    0.151436	    0.192255	    0.343691	   -0.023211	   -0.021109	   -0.044321	   -0.002348	   -0.011209	   -0.013557	   -0.030186	   -0.025188	   -0.055375	   -0.005778	   -0.011548	   -0.017326	   -0.018538	   -0.022002	   -0.040540	    0.095445	    0.120069	    0.215514
     8.925	0	0	    0	   -0.015547	    0.009367	   -0.006180	   -0.045504	   -0.019693	   -0.065198	   -0.015438	   -0.010056	   -0.025494	   -0.012930	   -0.005548	   -0.018478	   -0.024590	   -0.008541	   -0.033131	   -0.055140	   -0.021791	   -0.076930	    0.058876	    0.053151	    0.112027	    0.049345	    0.124094	    0.173439	    0.008484	    0.015517	    0.024001	    0.014671	    0.006388	    0.021059	   -0.004857	   -0.008546	   -0.013402	   -0.004436	   -0.000732	   -0.005168	   -0.013256	    0.000604	   -0.012652	    0.032333	    0.028317	    0.060650	    0.065033	    0.125929	    0.190961	    0.152595	    0.193449	    0.346045	   -0.019471	   -0.020428	   -0.039899	   -0.000307	   -0.009360	   -0.009666	   -0.027762	   -0.022359	   -0.050121	    0.002075	   -0.007274	   -0.005199	   -0.014724	   -0.017811	   -0.032535	    0.097600	    0.119655	    0.217255
     9.000	0	0	    0	   -0.014021	    0.007860	   -0.006161	   -0.046834	   -0.018363	   -0.065197	   -0.015684	   -0.010242	   -0.025926	   -0.012786	   -0.005294	   -0.018080	   -0.023945	   -0.007399	   -0.031344	   -0.054604	   -0.021847	   -0.076452	    0.054461	    0.054243	    0.108703	    0.048561	    0.124502	    0.173063	    0.010153	    0.012041	    0.022194	    0.012790	    0.007374	    0.020165	   -0.004977	   -0.008908	   -0.013885	   -0.004189	    0.000405	   -0.003784	   -0.013147	    0.000724	   -0.012423	    0.027460	    0.032234	    0.059694	    0.065760	    0.122602	    0.188362	    0.152474	    0.193044	    0.345517	   -0.019312	   -0.023224	   -0.042536	   -0.000845	   -0.008968	   -0.009813	   -0.028735	   -0.021343	   -0.050077	    0.001503	   -0.005853	   -0.004351	   -0.013192	   -0.019746	   -0.032938	    0.096079	    0.120384	    0.216463
     9.075	0	0	    0	   -0.016638	    0.011242	   -0.005396	   -0.047620	   -0.018367	   -0.065987	   -0.016239	   -0.009561	   -0.025801	   -0.013550	   -0.004445	   -0.017994	   -0.024771	   -0.006337	   -0.031108	   -0.055249	   -0.022000	   -0.077249	    0.053269	    0.055709	    0.108977	    0.046606	    0.126595	    0.173201	    0.008455	    0.013628	    0.022082	    0.012905	    0.007096	    0.020002	   -0.005311	   -0.008542	   -0.013853	   -0.007253	    0.002670	   -0.004583	   -0.015702	    0.001366	   -0.014336	    0.030553	    0.028289	    0.058842	    0.066494	    0.124075	    0.190569	    0.152197	    0.193339	    0.345535	   -0.021112	   -0.021119	   -0.042232	   -0.001104	   -0.008998	   -0.010102	   -0.029121	   -0.021966	   -0.051087	   -0.000529	   -0.005304	   -0.005833	   -0.016352	   -0.017812	   -0.034163	    0.097970	    0.120362	    0.218331
     9.150	0	0	    0	   -0.015525	    0.009386	   -0.006139	   -0.046765	   -0.019103	   -0.065868	   -0.015427	   -0.009974	   -0.025402	   -0.013105	   -0.005119	   -0.018225	   -0.024227	   -0.007118	   -0.031345	   -0.054708	   -0.022163	   -0.076871	    0.057194	    0.050837	    0.108031	    0.045844	    0.126674	    0.172518	    0.009584	    0.011851	    0.021435	    0.013920	    0.006779	    0.020699	   -0.005295	   -0.008433	   -0.013728	   -0.006911	    0.002115	   -0.004796	   -0.014166	   -0.000307	   -0.014473	    0.025161	    0.033465	    0.058626	    0.066297	    0.123396	    0.189693	    0.152374	    0.192703	    0.345077	   -0.020981	   -0.021506	   -0.042486	   -0.000593	   -0.009193	   -0.009786	   -0.028519	   -0.021686	   -0.050205	    0.001902	   -0.007047	   -0.005145	   -0.015135	   -0.019509	   -0.034644	    0.093686	    0.121462	    0.215148
     9.225	0	0	    0	   -0.014068	    0.007822	   -0.006246	   -0.047979	   -0.018358	   -0.066337	   -0.015893	   -0.009728	   -0.025620	   -0.012685	   -0.005446	   -0.018132	   -0.023455	   -0.007370	   -0.030825	   -0.055618	   -0.021856	   -0.077475	    0.050161	    0.057904	    0.108065	    0.047218	    0.125310	    0.172528	    0.008280	    0.013339	    0.021619	    0.012256	    0.007404	    0.019660	   -0.006344	   -0.007919	   -0.014263	   -0.005619	    0.000669	   -0.004949	   -0.016347	    0.001433	   -0.014914	    0.025737	    0.031240	    0.056978	    0.064816	    0.124874	    0.189691	    0.151318	    0.193718	    0.345036	   -0.022430	   -0.020662	   -0.043091	   -0.002139	   -0.009403	   -0.011542	   -0.030263	   -0.021588	   -0.051852	   -0.001070	   -0.004505	   -0.005574	   -0.016947	   -0.018894	   -0.035841	    0.096998	    0.120098	    0.217096
     9.300	0	0	    0	   -0.015734	    0.008962	   -0.006772	   -0.048241	   -0.018918	   -0.067159	   -0.016287	   -0.010161	   -0.026448	   -0.013281	   -0.005586	   -0.018867	   -0.024764	   -0.007155	   -0.031919	   -0.056988	   -0.022122	   -0.079110	    0.053725	    0.054199	    0.107924	    0.046625	    0.125093	    0.171719	    0.007718	    0.013076	    0.020793	    0.011637	    0.006637	    0.018274	   -0.006317	   -0.008873	   -0.015190	   -0.006525	    0.000398	   -0.006127	   -0.018546	    0.000699	   -0.017847	    0.026987	    0.028068	    0.055055	    0.064792	    0.126277	    0.191069	    0.150828	    0.193237	    0.344065	   -0.023040	   -0.021435	   -0.044475	   -0.003867	   -0.009705	   -0.013573	   -0.031881	   -0.022210	   -0.054091	   -0.002678	   -0.005972	   -0.008650	   -0.018635	   -0.018570	   -0.037205	    0.096239	    0.118414	    0.214653
     9.375	0	0	    0	   -0.018382	    0.009908	   -0.008474	   -0.049939	   -0.018621	   -0.068560	   -0.017844	   -0.009550	   -0.027394	   -0.014534	   -0.004785	   -0.019318	   -0.025878	   -0.007371	   -0.033250	   -0.057051	   -0.023869	   -0.080920	    0.054067	    0.051514	    0.105581	    0.045416	    0.125767	    0.171183	    0.007560	    0.011106	    0.018666	    0.010412	    0.006352	    0.016763	   -0.007672	   -0.008391	   -0.016063	   -0.009574	    0.001375	   -0.008200	   -0.020374	   -0.000622	   -0.020996	    0.025675	    0.029815	    0.055490	    0.061406	    0.127757	    0.189163	    0.149906	    0.192648	    0.342554	   -0.022659	   -0.023554	   -0.046213	   -0.006155	   -0.009897	   -0.016051	   -0.034349	   -0.022408	   -0.056757	   -0.004944	   -0.007366	   -0.012311	   -0.020203	   -0.019017	   -0.039220	    0.093965	    0.121551	    0.215516
     9.450	0	0	    0	   -0.018804	    0.009680	   -0.009124	   -0.051120	   -0.018083	   -0.069203	   -0.017971	   -0.010121	   -0.028092	   -0.015008	   -0.005124	   -0.020132	   -0.027607	   -0.007232	   -0.034839	   -0.060404	   -0.022743	   -0.083147	    0.052789	    0.052119	    0.104908	    0.045120	    0.124894	    0.170014	    0.004681	    0.013359	    0.018040	    0.009416	    0.006488	    0.015904	   -0.008808	   -0.008249	   -0.017058	   -0.010761	    0.001053	   -0.009707	   -0.022488	   -0.000945	   -0.023433	    0.023499	    0.030137	    0.053636	    0.061068	    0.127638	    0.188706	    0.149101	    0.192232	    0.341334	   -0.024722	   -0.022676	   -0.047398	   -0.008019	   -0.009957	   -0.017976	   -0.036490	   -0.022933	   -0.059423	   -0.007877	   -0.008068	   -0.015945	   -0.021101	   -0.020640	   -0.041741	    0.091711	    0.120098	    0.211809
     9.525	0	0	    0	   -0.020772	    0.009158	   -0.011614	   -0.052891	   -0.018508	   -0.071399	   -0.019937	   -0.009834	   -0.029772	   -0.016511	   -0.005013	   -0.021525	   -0.029398	   -0.007028	   -0.036426	   -0.062163	   -0.023955	   -0.086118	    0.047272	    0.050258	    0.097530	    0.043909	    0.124980	    0.168889	    0.004084	    0.012441	    0.016525	    0.007822	    0.005685	    0.013507	   -0.010128	   -0.008256	   -0.018384	   -0.013206	    0.000772	   -0.012434	   -0.025107	   -0.001415	   -0.026522	    0.021610	    0.027115	    0.048725	    0.056491	    0.129976	    0.186467	    0.148566	    0.191895	    0.340462	   -0.026379	   -0.023591	   -0.049970	   -0.010458	   -0.010171	   -0.020629	   -0.038883	   -0.023351	   -0.062234	   -0.010996	   -0.009300	   -0.020296	   -0.024771	   -0.019472	   -0.044243	    0.086506	    0.123833	    0.210339
     9.600	0	0	    0	   -0.019412	    0.007419	   -0.011993	   -0.049090	   -0.019770	   -0.068860	   -0.017485	   -0.010156	   -0.027641	   -0.017340	   -0.004523	   -0.021864	   -0.029410	   -0.008067	   -0.037477	   -0.057799	   -0.025178	   -0.082977	    0.053816	    0.052839	    0.106655	    0.043006	    0.125028	    0.168034	    0.006105	    0.011335	    0.017440	    0.011652	    0.005603	    0.017255	   -0.005662	   -0.009604	   -0.015266	   -0.013003	    0.000064	   -0.012939	   -0.021457	   -0.003049	   -0.024506	    0.023767	    0.030580	    0.054348	    0.062278	    0.125258	    0.187537	    0.148661	    0.191461	    0.340122	   -0.023695	   -0.024335	   -0.048031	   -0.000310	   -0.011562	   -0.011871	   -0.029079	   -0.024403	   -0.053482	   -0.006348	   -0.011003	   -0.017350	   -0.020837	   -0.022123	   -0.042960	    0.092998	    0.120800	    0.213798
     9.675	0	0	    0	   -0.016745	    0.008879	   -0.007866	   -0.047105	   -0.018257	   -0.065363	   -0.014035	   -0.010476	   -0.024511	   -0.012499	   -0.005130	   -0.017628	   -0.024151	   -0.007246	   -0.031397	   -0.052960	   -0.023263	   -0.076223	    0.061720	    0.050248	    0.111968	    0.044900	    0.124217	    0.169117	    0.010501	    0.012111	    0.022613	    0.014774	    0.007228	    0.022002	   -0.004169	   -0.008591	   -0.012759	   -0.006319	    0.000245	   -0.006073	   -0.012939	   -0.000266	   -0.013205	    0.031388	    0.026522	    0.057910	    0.064368	    0.123035	    0.187404	    0.150408	    0.191782	    0.342189	   -0.019545	   -0.021938	   -0.041484	    0.003426	   -0.008472	   -0.005046	   -0.024883	   -0.020642	   -0.045526	    0.004762	   -0.006812	   -0.002049	   -0.013603	   -0.020952	   -0.034555	    0.090650	    0.122627	    0.213277
     9.750	0	0	    0	   -0.016511	    0.011094	   -0.005417	   -0.046422	   -0.018632	   -0.065054	   -0.014014	   -0.009995	   -0.024009	   -0.010911	   -0.005436	   -0.016348	   -0.021252	   -0.007095	   -0.028347	   -0.052684	   -0.021998	   -0.074682	    0.058252	    0.054639	    0.112891	    0.046280	    0.123477	    0.169757	    0.010551	    0.012195	    0.022746	    0.015441	    0.006780	    0.022221	   -0.004040	   -0.008674	   -0.012714	   -0.003619	    0.000853	   -0.002765	   -0.011237	    0.001190	   -0.010047	    0.028130	    0.031600	    0.059730	    0.063498	    0.125023	    0.188521	    0.150259	    0.192087	    0.342346	   -0.019083	   -0.022791	   -0.041875	    0.003809	   -0.008078	   -0.004269	   -0.024420	   -0.020265	   -0.044685	    0.005963	   -0.004399	    0.001564	   -0.011969	   -0.020924	   -0.032893	    0.094145	    0.119372	    0.213517
     9.825	0	0	    0	   -0.014981	    0.007575	   -0.007406	   -0.046572	   -0.019118	   -0.065691	   -0.013298	   -0.010240	   -0.023538	   -0.010635	   -0.005058	   -0.015693	   -0.020957	   -0.006205	   -0.027162	   -0.052206	   -0.022442	   -0.074648	    0.056304	    0.055731	    0.112036	    0.045446	    0.124045	    0.169491	    0.010208	    0.011945	    0.022153	    0.014957	    0.007794	    0.022751	   -0.004701	   -0.008123	   -0.012825	   -0.003344	    0.002016	   -0.001329	   -0.011038	    0.001141	   -0.009897	    0.031192	    0.028048	    0.059240	    0.064833	    0.124614	    0.189448	    0.150671	    0.191688	    0.342359	   -0.018728	   -0.021735	   -0.040463	    0.002919	   -0.007909	   -0.004990	   -0.025481	   -0.020215	   -0.045696	    0.005916	   -0.003958	    0.001958	   -0.013735	   -0.018394	   -0.032130	    0.093988	    0.121828	    0.215815
     9.900	0	0	    0	   -0.015133	    0.009332	   -0.005801	   -0.046457	   -0.018363	   -0.064821	   -0.013523	   -0.009670	   -0.023192	   -0.010634	   -0.005578	   -0.016212	   -0.020198	   -0.006679	   -0.026877	   -0.051679	   -0.022447	   -0.074126	    0.061026	    0.053089	    0.114116	    0.046905	    0.122560	    0.169465	    0.009004	    0.013962	    0.022966	    0.016303	    0.006365	    0.022668	   -0.003240	   -0.009040	   -0.012280	   -0.002812	    0.001167	   -0.001645	   -0.010871	    0.001359	   -0.009512	    0.030352	    0.029823	    0.060175	    0.063845	    0.126784	    0.190629	    0.150181	    0.192335	    0.342516	   -0.019510	   -0.021629	   -0.041139	    0.003693	   -0.008583	   -0.004891	   -0.025254	   -0.020564	   -0.045818	    0.004748	   -0.003982	    0.000766	   -0.013617	   -0.018514	   -0.032132	    0.094890	    0.121751	    0.216642
