 [File Information]      		 [Data Line]	36
Measured Date	2024/05/27 094521
ID		Version	11.0
Name	oceane_1	[HeaderType]	11.0/11.0
Comment	
[Measurement Info.]
Holder Location	       0
Block Design	Off     
Pre.Rest Time	       0
Task Time	       0
Pos.Rest Time	       0
Loop	       0
Averaging	       1
Total Points	     811
[.INF File]
Filename	Cognitive1.INF
[Condition-1]
HV Switching	OFF
 R1 ,R2 ,R3 ,R4 ,R5 ,R6 ,R7 ,R8 
 120.00, 70.00,120.00,100.00, 90.00, 70.00,120.00,120.00
 Gain(X1,X4,X16,X64)
 R1 ,R2 ,R3 ,R4 ,R5 ,R6 ,R7 ,R8 
 1,1,1,1,1,1,1,1
[Analysis Condition]
Smoothed Type	None            
Smoothed Points	       0
Smoothed Loop	       0
Baseline Method	None            
Baseline location	
[Text Info.]
Output Mode	Continious      	Task No.		Data Type	Hb      
Time Range	    0.00	   60.75	Averaing	1
(1,3)(5,3)(5,7)(2,7)(2,4)(6,4)(6,8)(1,1)(3,3)(5,5)(7,7)(2,2)(4,4)(6,6)(8,8)(3,1)(3,5)(7,5)(7,2)(4,2)(4,6)(8,6)
         	     	     	     	    ch- 1	    ch- 1	    ch- 1	    ch- 2	    ch- 2	    ch- 2	    ch- 3	    ch- 3	    ch- 3	    ch- 4	    ch- 4	    ch- 4	    ch- 5	    ch- 5	    ch- 5	    ch- 6	    ch- 6	    ch- 6	    ch- 7	    ch- 7	    ch- 7	    ch- 8	    ch- 8	    ch- 8	    ch- 9	    ch- 9	    ch- 9	    ch-10	    ch-10	    ch-10	    ch-11	    ch-11	    ch-11	    ch-12	    ch-12	    ch-12	    ch-13	    ch-13	    ch-13	    ch-14	    ch-14	    ch-14	    ch-15	    ch-15	    ch-15	    ch-16	    ch-16	    ch-16	    ch-17	    ch-17	    ch-17	    ch-18	    ch-18	    ch-18	    ch-19	    ch-19	    ch-19	    ch-20	    ch-20	    ch-20	    ch-21	    ch-21	    ch-21	    ch-22	    ch-22	    ch-22
Time(sec)	Task	Mark	Count	    oxyHb   	  deoxyHb	  totalHb	    oxyHb   	  deoxyHb	  totalHb	    oxyHb   	  deoxyHb	  totalHb	    oxyHb   	  deoxyHb	  totalHb	    oxyHb   	  deoxyHb	  totalHb	    oxyHb   	  deoxyHb	  totalHb	    oxyHb   	  deoxyHb	  totalHb	    oxyHb   	  deoxyHb	  totalHb	    oxyHb   	  deoxyHb	  totalHb	    oxyHb   	  deoxyHb	  totalHb	    oxyHb   	  deoxyHb	  totalHb	    oxyHb   	  deoxyHb	  totalHb	    oxyHb   	  deoxyHb	  totalHb	    oxyHb   	  deoxyHb	  totalHb	    oxyHb   	  deoxyHb	  totalHb	    oxyHb   	  deoxyHb	  totalHb	    oxyHb   	  deoxyHb	  totalHb	    oxyHb   	  deoxyHb	  totalHb	    oxyHb   	  deoxyHb	  totalHb	    oxyHb   	  deoxyHb	  totalHb	    oxyHb   	  deoxyHb	  totalHb	    oxyHb   	  deoxyHb	  totalHb
     0.000	0	0Z	    0	    0.000000	    0.000000	    0.000000	    0.000000	    0.000000	    0.000000	    0.000000	    0.000000	    0.000000	    0.000000	    0.000000	    0.000000	    0.000000	    0.000000	    0.000000	    0.000000	    0.000000	    0.000000	    0.000000	    0.000000	    0.000000	    0.000000	    0.000000	    0.000000	    0.000000	    0.000000	    0.000000	    0.000000	    0.000000	    0.000000	    0.000000	    0.000000	    0.000000	    0.000000	    0.000000	    0.000000	    0.000000	    0.000000	    0.000000	    0.000000	    0.000000	    0.000000	    0.000000	    0.000000	    0.000000	    0.000000	    0.000000	    0.000000	    0.000000	    0.000000	    0.000000	    0.000000	    0.000000	    0.000000	    0.000000	    0.000000	    0.000000	    0.000000	    0.000000	    0.000000	    0.000000	    0.000000	    0.000000	    0.000000	    0.000000	    0.000000
     0.075	0	0	    0	   -0.013841	    0.013211	   -0.000629	   -0.000255	   -0.003246	   -0.003502	    0.001546	   -0.003487	   -0.001942	   -0.004507	    0.003876	   -0.000631	   -0.005674	    0.003903	   -0.001771	    0.005492	   -0.010092	   -0.004600	    0.009773	   -0.022694	   -0.012922	   -0.011397	    0.010087	   -0.001309	   -0.002348	   -0.001980	   -0.004328	   -0.002189	    0.000209	   -0.001979	   -0.001348	   -0.000088	   -0.001436	   -0.001901	    0.000605	   -0.001297	   -0.004635	    0.001855	   -0.002780	   -0.003633	    0.004050	    0.000416	   -0.008745	    0.001672	   -0.007072	   -0.000049	   -0.004627	   -0.004676	   -0.002744	    0.000862	   -0.001882	   -0.002526	    0.000451	   -0.002075	   -0.001028	   -0.000663	   -0.001691	   -0.002741	   -0.000404	   -0.003144	   -0.000680	   -0.002038	   -0.002717	    0.003302	   -0.005646	   -0.002343
     0.150	0	0	    0	   -0.003110	    0.009434	    0.006324	   -0.006157	    0.000586	   -0.005571	   -0.005538	    0.000023	   -0.005514	   -0.002843	   -0.000649	   -0.003492	   -0.003108	    0.001485	   -0.001623	   -0.009094	    0.002557	   -0.006537	   -0.007381	   -0.005895	   -0.013276	   -0.001207	   -0.002016	   -0.003223	   -0.004170	   -0.002854	   -0.007024	   -0.003786	   -0.001674	   -0.005459	   -0.001872	   -0.000926	   -0.002797	   -0.003353	    0.000340	   -0.003013	   -0.004451	   -0.001331	   -0.005782	   -0.001947	   -0.001708	   -0.003655	   -0.004491	   -0.000871	   -0.005361	   -0.003260	   -0.004877	   -0.008137	   -0.003506	   -0.000850	   -0.004355	   -0.003387	   -0.000539	   -0.003926	   -0.002490	   -0.000761	   -0.003251	   -0.005287	   -0.001768	   -0.007055	   -0.003835	   -0.001466	   -0.005301	    0.002756	   -0.005427	   -0.002671
     0.225	0	0	    0	    0.001648	    0.003356	    0.005004	   -0.003664	   -0.002957	   -0.006621	    0.003081	   -0.009944	   -0.006863	   -0.001844	   -0.001484	   -0.003327	   -0.003947	    0.000903	   -0.003045	   -0.000036	   -0.011755	   -0.011791	    0.004610	   -0.012933	   -0.008323	   -0.003962	    0.001866	   -0.002096	   -0.008675	   -0.001233	   -0.009908	   -0.004905	   -0.000602	   -0.005507	   -0.003641	   -0.000319	   -0.003960	   -0.004127	   -0.000485	   -0.004612	   -0.008039	    0.000383	   -0.007656	   -0.008526	    0.000614	   -0.007912	   -0.008471	    0.003850	   -0.004622	   -0.006461	   -0.003055	   -0.009516	   -0.005394	   -0.000915	   -0.006309	   -0.004537	   -0.000414	   -0.004951	   -0.004836	   -0.000185	   -0.005021	   -0.008995	   -0.001163	   -0.010158	   -0.004121	   -0.004433	   -0.008554	   -0.002817	   -0.003930	   -0.006747
     0.300	0	0	    0	    0.007043	   -0.003467	    0.003576	   -0.006591	    0.000906	   -0.005685	   -0.007375	    0.001933	   -0.005441	   -0.004810	   -0.000152	   -0.004962	   -0.005011	   -0.000221	   -0.005232	   -0.007784	   -0.002153	   -0.009937	   -0.005930	    0.001501	   -0.004429	    0.001677	   -0.004469	   -0.002792	   -0.009497	   -0.002235	   -0.011732	   -0.005974	   -0.002243	   -0.008218	   -0.004474	   -0.000764	   -0.005237	   -0.005723	   -0.000341	   -0.006063	   -0.012114	    0.002158	   -0.009956	   -0.006503	   -0.000877	   -0.007381	    0.002127	    0.001260	    0.003387	   -0.009962	   -0.002076	   -0.012039	   -0.008186	   -0.000246	   -0.008432	   -0.005964	   -0.000886	   -0.006850	   -0.005902	   -0.001023	   -0.006925	   -0.011838	   -0.001512	   -0.013350	   -0.008802	   -0.001666	   -0.010468	    0.003498	    0.000550	    0.004049
     0.375	0	0	    0	    0.005397	   -0.003558	    0.001839	   -0.008810	    0.000171	   -0.008639	   -0.006419	   -0.003385	   -0.009804	   -0.005922	   -0.001463	   -0.007385	   -0.001573	   -0.002925	   -0.004497	   -0.014028	    0.006378	   -0.007650	    0.005391	    0.002651	    0.008042	   -0.003704	   -0.001596	   -0.005300	   -0.013183	   -0.001358	   -0.014541	   -0.008399	   -0.001696	   -0.010094	   -0.005846	   -0.000868	   -0.006714	   -0.006961	   -0.000929	   -0.007890	   -0.012086	    0.000126	   -0.011960	   -0.005366	    0.001547	   -0.003819	    0.003387	    0.011491	    0.014879	   -0.011946	   -0.004289	   -0.016235	   -0.009860	   -0.000943	   -0.010803	   -0.007347	   -0.001514	   -0.008861	   -0.007786	   -0.001022	   -0.008808	   -0.014941	   -0.002016	   -0.016957	   -0.011461	   -0.002320	   -0.013781	    0.017997	    0.007563	    0.025561
     0.450	0	0	    0	   -0.010058	    0.005170	   -0.004888	   -0.019787	   -0.008543	   -0.028329	    0.006547	    0.000268	    0.006815	   -0.012033	    0.001016	   -0.011017	   -0.008639	   -0.000883	   -0.009522	   -0.020700	   -0.001448	   -0.022149	    0.023391	    0.010568	    0.033960	   -0.015912	    0.003407	   -0.012505	   -0.030096	   -0.006085	   -0.036180	   -0.011055	   -0.004621	   -0.015675	   -0.021005	   -0.006098	   -0.027103	   -0.010809	   -0.000283	   -0.011092	   -0.021091	   -0.003424	   -0.024515	   -0.006889	    0.003101	   -0.003788	    0.002629	    0.014542	    0.017171	   -0.023885	   -0.007189	   -0.031075	   -0.012732	   -0.001927	   -0.014659	   -0.002090	   -0.001379	   -0.003469	   -0.017148	   -0.004227	   -0.021376	   -0.025117	   -0.004001	   -0.029118	   -0.017925	   -0.007968	   -0.025893	    0.034684	    0.011173	    0.045857
     0.525	0	0	    0	   -0.011590	    0.011403	   -0.000187	   -0.015126	   -0.023239	   -0.038366	    0.023453	   -0.001407	    0.022046	   -0.013221	   -0.010149	   -0.023369	   -0.011267	    0.001219	   -0.010048	   -0.004463	   -0.018587	   -0.023050	    0.063122	    0.013195	    0.076316	   -0.015836	   -0.004288	   -0.020124	   -0.040310	   -0.031434	   -0.071743	    0.000312	   -0.017092	   -0.016780	   -0.015232	   -0.020051	   -0.035283	   -0.020752	   -0.010771	   -0.031523	   -0.015038	   -0.023258	   -0.038296	    0.007109	    0.007363	    0.014472	    0.004762	    0.034765	    0.039527	   -0.015560	   -0.019162	   -0.034722	   -0.010913	   -0.014768	   -0.025681	    0.007838	   -0.002446	    0.005392	   -0.009675	   -0.016215	   -0.025890	   -0.020496	   -0.024145	   -0.044641	    0.009131	   -0.010612	   -0.001481	    0.050139	    0.037486	    0.087626
     0.600	0	0	    0	   -0.005751	    0.001871	   -0.003879	   -0.015560	   -0.016889	   -0.032449	    0.018974	    0.004975	    0.023949	   -0.007560	   -0.009967	   -0.017527	   -0.013295	   -0.003799	   -0.017094	   -0.022241	    0.003612	   -0.018629	    0.033067	    0.048661	    0.081729	   -0.014978	   -0.004974	   -0.019952	   -0.031066	   -0.030952	   -0.062017	    0.006113	   -0.012070	   -0.005957	   -0.008451	   -0.019100	   -0.027551	   -0.014260	   -0.016479	   -0.030739	   -0.003791	   -0.024965	   -0.028755	    0.006803	    0.023153	    0.029956	    0.022421	    0.031232	    0.053653	   -0.013858	   -0.013637	   -0.027495	    0.002281	   -0.013492	   -0.011211	    0.006247	   -0.002284	    0.003963	   -0.006258	   -0.013858	   -0.020116	   -0.010358	   -0.020503	   -0.030861	    0.016382	    0.001098	    0.017480	    0.075990	    0.043233	    0.119223
     0.675	0	0	    0	   -0.019286	    0.008344	   -0.010942	   -0.006453	   -0.017961	   -0.024414	    0.017860	    0.000349	    0.018209	   -0.004166	   -0.007864	   -0.012030	   -0.015033	   -0.010266	   -0.025298	   -0.014814	   -0.015419	   -0.030233	    0.019661	    0.041466	    0.061127	   -0.017582	   -0.006608	   -0.024190	   -0.023010	   -0.026778	   -0.049788	    0.005819	   -0.007423	   -0.001603	   -0.002084	   -0.011986	   -0.014070	   -0.009122	   -0.015743	   -0.024866	   -0.003751	   -0.018482	   -0.022233	    0.012366	    0.019452	    0.031819	    0.045594	    0.018693	    0.064287	   -0.012418	   -0.012672	   -0.025090	    0.005108	   -0.006848	   -0.001740	    0.002913	   -0.002473	    0.000441	   -0.005105	   -0.010068	   -0.015173	   -0.006062	   -0.016552	   -0.022614	    0.016938	    0.007028	    0.023966	    0.084449	    0.073507	    0.157956
     0.750	0	0	    0	    0.006409	   -0.022035	   -0.015626	   -0.020783	   -0.015579	   -0.036362	    0.034599	    0.005594	    0.040192	   -0.000779	   -0.005847	   -0.006626	   -0.011552	   -0.019320	   -0.030872	   -0.027277	   -0.005940	   -0.033216	    0.072018	    0.022567	    0.094585	   -0.010805	   -0.009894	   -0.020699	   -0.053039	   -0.008194	   -0.061233	   -0.002690	   -0.007283	   -0.009973	   -0.010625	   -0.013994	   -0.024619	   -0.009669	   -0.008656	   -0.018326	   -0.038312	   -0.005219	   -0.043530	    0.022344	    0.010647	    0.032990	    0.056716	    0.013624	    0.070340	   -0.019067	   -0.007810	   -0.026876	   -0.002146	    0.000957	   -0.001189	    0.021400	    0.002667	    0.024067	   -0.016174	   -0.013596	   -0.029770	   -0.019530	   -0.005439	   -0.024969	    0.010728	    0.007129	    0.017857	    0.091656	    0.087916	    0.179572
     0.825	0	0	    0	    0.005467	    0.006278	    0.011745	   -0.011690	   -0.028552	   -0.040242	    0.053421	    0.014803	    0.068224	    0.009942	   -0.011914	   -0.001972	   -0.095190	   -0.087284	   -0.182475	   -0.030085	   -0.098386	   -0.128471	    0.134798	    0.072335	    0.207132	    0.001088	    0.005398	    0.006486	   -0.089116	   -0.061883	   -0.150999	   -0.015191	   -0.041799	   -0.056991	    0.016469	   -0.015053	    0.001416	   -0.037080	   -0.041186	   -0.078267	   -0.101411	   -0.145210	   -0.246621	    0.051529	    0.028207	    0.079735	    0.072067	    0.021738	    0.093806	   -0.018033	   -0.015028	   -0.033061	   -0.025963	   -0.031966	   -0.057929	    0.039246	   -0.005476	    0.033770	    0.012911	   -0.043504	   -0.030593	   -0.033256	   -0.049243	   -0.082499	    0.033269	    0.001145	    0.034414	    0.117506	    0.096280	    0.213786
     0.900	0	0	    0	    0.040138	    0.036059	    0.076197	   -0.008300	   -0.031946	   -0.040246	    0.061729	    0.020658	    0.082388	    0.030504	    0.014729	    0.045233	   -0.077901	   -0.136568	   -0.214468	   -0.031234	   -0.092520	   -0.123754	    0.159029	    0.098898	    0.257927	    0.023390	    0.040369	    0.063758	   -0.085961	   -0.076810	   -0.162771	   -0.005145	   -0.059709	   -0.064854	    0.002053	    0.001442	    0.003495	   -0.030630	   -0.053230	   -0.083860	   -0.091574	   -0.180088	   -0.271662	    0.063775	    0.053911	    0.117685	    0.085487	    0.029933	    0.115420	   -0.013090	   -0.012396	   -0.025486	   -0.023242	   -0.052212	   -0.075454	    0.028514	   -0.000173	    0.028341	    0.005965	   -0.034883	   -0.028919	   -0.027836	   -0.060392	   -0.088228	    0.039206	    0.014396	    0.053602	    0.081656	    0.105321	    0.186977
     0.975	0	0	    0	    0.010333	    0.063714	    0.074047	    0.001115	   -0.038483	   -0.037369	    0.043220	    0.009214	    0.052434	    0.005949	    0.018622	    0.024571	   -0.065058	   -0.125541	   -0.190599	   -0.015877	   -0.093219	   -0.109096	    0.096195	    0.093633	    0.189829	    0.003941	    0.053896	    0.057837	   -0.065011	   -0.071982	   -0.136992	    0.008375	   -0.053783	   -0.045408	   -0.013196	   -0.020449	   -0.033644	   -0.025117	   -0.045249	   -0.070366	   -0.061925	   -0.173819	   -0.235744	    0.022636	    0.051968	    0.074603	   -0.007787	    0.056902	    0.049115	   -0.017595	   -0.014623	   -0.032218	   -0.006699	   -0.044419	   -0.051118	   -0.005011	   -0.010525	   -0.015536	   -0.017546	   -0.030983	   -0.048529	   -0.020844	   -0.057752	   -0.078596	    0.042559	    0.012165	    0.054724	    0.037945	    0.047616	    0.085562
     1.050	0	0	    0	    0.011179	    0.017240	    0.028419	    0.000534	   -0.026254	   -0.025721	    0.016793	    0.006045	    0.022838	   -0.003607	   -0.007243	   -0.010849	   -0.052185	   -0.120594	   -0.172779	   -0.019526	   -0.082799	   -0.102326	    0.044064	    0.047135	    0.091199	    0.008137	    0.030082	    0.038218	   -0.011190	   -0.037155	   -0.048345	    0.007838	   -0.028843	   -0.021006	   -0.015954	   -0.019966	   -0.035920	   -0.017340	   -0.033210	   -0.050551	   -0.024905	   -0.138427	   -0.163332	    0.014047	    0.037599	    0.051645	   -0.007632	    0.033849	    0.026217	    0.004868	    0.001855	    0.006723	   -0.008651	   -0.015806	   -0.024457	   -0.012570	   -0.012647	   -0.025218	   -0.017790	   -0.022132	   -0.039922	   -0.017224	   -0.027571	   -0.044794	    0.034673	    0.017854	    0.052527	    0.031302	    0.034987	    0.066290
     1.125	0	0	    0	    0.003191	    0.009190	    0.012381	    0.007133	   -0.023110	   -0.015977	    0.010977	   -0.007904	    0.003073	   -0.004509	   -0.015586	   -0.020095	   -0.036735	   -0.088875	   -0.125610	   -0.005849	   -0.058361	   -0.064210	    0.025160	    0.028336	    0.053496	   -0.005032	    0.021675	    0.016643	   -0.029203	   -0.014773	   -0.043976	    0.019526	   -0.009209	    0.010317	   -0.010234	   -0.015608	   -0.025842	   -0.012384	   -0.021300	   -0.033684	    0.001629	   -0.075475	   -0.073846	    0.001953	    0.028192	    0.030145	    0.004387	    0.004620	    0.009006	   -0.040498	   -0.003389	   -0.043887	    0.005331	   -0.007155	   -0.001824	   -0.008057	   -0.009614	   -0.017671	   -0.016134	   -0.015671	   -0.031805	    0.005319	   -0.007453	   -0.002134	    0.037204	    0.021809	    0.059013	    0.021233	    0.024423	    0.045657
     1.200	0	0	    0	    0.005643	    0.006030	    0.011672	    0.001108	   -0.012605	   -0.011497	    0.007036	   -0.008044	   -0.001008	   -0.002343	   -0.010770	   -0.013113	   -0.015677	   -0.071659	   -0.087336	    0.003368	   -0.026772	   -0.023404	    0.006852	    0.030052	    0.036904	   -0.011326	   -0.011076	   -0.022401	   -0.027318	   -0.040707	   -0.068025	    0.014177	    0.006045	    0.020223	   -0.010987	   -0.009620	   -0.020607	   -0.009167	   -0.011811	   -0.020977	    0.000715	   -0.048197	   -0.047482	   -0.009334	    0.022042	    0.012708	   -0.001412	   -0.003814	   -0.005226	   -0.047578	   -0.054116	   -0.101695	    0.010723	    0.003451	    0.014174	   -0.006378	   -0.003003	   -0.009381	   -0.017764	   -0.008900	   -0.026663	    0.013595	    0.018187	    0.031782	    0.031795	    0.019043	    0.050839	    0.007679	    0.020909	    0.028587
     1.275	0	0	    0	    0.002712	    0.008643	    0.011355	   -0.023567	   -0.014376	   -0.037943	    0.021149	   -0.001341	    0.019809	   -0.006527	   -0.004449	   -0.010975	   -0.015146	   -0.040822	   -0.055968	   -0.025083	   -0.015261	   -0.040344	    0.061137	    0.014880	    0.076017	   -0.023513	   -0.009058	   -0.032571	   -0.062958	   -0.025508	   -0.088465	   -0.006494	    0.005410	   -0.001085	   -0.026600	   -0.016897	   -0.043497	   -0.022865	   -0.001181	   -0.024046	   -0.033926	   -0.032415	   -0.066342	   -0.006702	    0.012701	    0.006000	    0.021835	    0.027189	    0.049025	   -0.069092	   -0.056210	   -0.125302	    0.014476	    0.011772	    0.026249	    0.020031	    0.003439	    0.023470	   -0.026938	   -0.021255	   -0.048193	   -0.009915	    0.024537	    0.014622	    0.004734	    0.009373	    0.014108	    0.051328	    0.033243	    0.084571
     1.350	0	0	    0	    0.005789	    0.008179	    0.013968	   -0.017764	   -0.037349	   -0.055113	    0.045238	    0.012749	    0.057988	   -0.001730	   -0.017777	   -0.019507	   -0.107793	   -0.107869	   -0.215662	   -0.063732	   -0.100991	   -0.164723	    0.095951	    0.078562	    0.174513	   -0.043209	   -0.021088	   -0.064297	   -0.143833	   -0.084453	   -0.228286	   -0.032522	   -0.039172	   -0.071694	    0.002306	   -0.025322	   -0.023016	   -0.062570	   -0.046097	   -0.108667	   -0.135445	   -0.166365	   -0.301810	    0.023391	    0.031552	    0.054943	    0.061142	    0.032277	    0.093419	   -0.090607	   -0.073757	   -0.164364	   -0.009421	   -0.003682	   -0.013103	    0.027206	    0.001877	    0.029083	   -0.001331	   -0.044671	   -0.046001	   -0.059438	   -0.026275	   -0.085713	    0.010777	    0.009053	    0.019830	    0.100108	    0.080459	    0.180568
     1.425	0	0	    0	    0.001166	    0.032167	    0.033334	   -0.009383	   -0.033897	   -0.043280	    0.070903	    0.017495	    0.088398	    0.023187	    0.006571	    0.029758	   -0.105704	   -0.168219	   -0.273923	   -0.061324	   -0.127013	   -0.188337	    0.137745	    0.102101	    0.239846	   -0.028075	   -0.017423	   -0.045498	   -0.134983	   -0.114106	   -0.249089	   -0.022168	   -0.065225	   -0.087393	    0.013436	    0.000888	    0.014324	   -0.054135	   -0.071701	   -0.125836	   -0.147712	   -0.226025	   -0.373737	    0.036311	    0.046093	    0.082403	    0.079758	    0.028437	    0.108194	   -0.077676	   -0.065499	   -0.143175	   -0.010865	   -0.032217	   -0.043082	    0.031538	   -0.007734	    0.023804	    0.010840	   -0.046276	   -0.035435	   -0.043312	   -0.065793	   -0.109105	    0.008325	    0.007601	    0.015926	    0.123489	    0.123743	    0.247231
     1.500	0	0	    0	    0.006827	    0.048544	    0.055371	   -0.008583	   -0.032629	   -0.041212	    0.056528	    0.034932	    0.091459	    0.025326	    0.028572	    0.053897	   -0.095116	   -0.160771	   -0.255887	   -0.061266	   -0.124847	   -0.186113	    0.129419	    0.108113	    0.237532	   -0.022391	   -0.001884	   -0.024275	   -0.114466	   -0.108926	   -0.223391	   -0.013164	   -0.063152	   -0.076316	   -0.006314	   -0.000442	   -0.006756	   -0.045028	   -0.067131	   -0.112159	   -0.137374	   -0.228381	   -0.365755	    0.032286	    0.050010	    0.082296	    0.064782	    0.034330	    0.099112	   -0.075961	   -0.056056	   -0.132017	   -0.010741	   -0.038886	   -0.049627	    0.011379	   -0.007425	    0.003954	   -0.006294	   -0.043181	   -0.049475	   -0.045756	   -0.070956	   -0.116713	    0.007654	    0.005748	    0.013402	    0.081194	    0.130070	    0.211264
     1.575	0	0	    0	   -0.003529	    0.031202	    0.027672	   -0.009071	   -0.041182	   -0.050252	    0.068737	    0.007829	    0.076566	    0.015523	    0.016234	    0.031757	   -0.095424	   -0.156184	   -0.251608	   -0.056450	   -0.123710	   -0.180161	    0.135383	    0.076877	    0.212260	   -0.034106	   -0.002521	   -0.036627	   -0.117542	   -0.083373	   -0.200915	   -0.020576	   -0.055899	   -0.076476	    0.002187	   -0.017314	   -0.015128	   -0.042752	   -0.062303	   -0.105055	   -0.133433	   -0.225087	   -0.358520	    0.028517	    0.048973	    0.077490	    0.022263	    0.063563	    0.085826	   -0.075842	   -0.055002	   -0.130844	   -0.015009	   -0.026083	   -0.041092	    0.011886	   -0.016035	   -0.004149	   -0.003951	   -0.050919	   -0.054870	   -0.047085	   -0.075422	   -0.122507	    0.010124	    0.002055	    0.012179	    0.033679	    0.090499	    0.124177
     1.650	0	0	    0	    0.032119	    0.038715	    0.070833	   -0.000282	   -0.035962	   -0.036244	    0.077128	    0.032920	    0.110048	    0.042016	    0.018517	    0.060533	   -0.083573	   -0.152237	   -0.235811	   -0.072404	   -0.087521	   -0.159925	    0.160818	    0.094244	    0.255063	   -0.007041	   -0.001167	   -0.008208	   -0.129198	   -0.106619	   -0.235817	   -0.020311	   -0.068795	   -0.089105	    0.015757	    0.008263	    0.024020	   -0.039792	   -0.062868	   -0.102661	   -0.133432	   -0.219947	   -0.353379	    0.045689	    0.043712	    0.089401	    0.025620	    0.004344	    0.029964	   -0.064527	   -0.054092	   -0.118619	   -0.021055	   -0.041508	   -0.062563	    0.021294	   -0.020140	    0.001154	    0.008968	   -0.048882	   -0.039914	   -0.036327	   -0.076813	   -0.113140	    0.038298	   -0.000620	    0.037678	    0.006733	    0.041670	    0.048403
     1.725	0	0	    0	    0.022462	    0.058486	    0.080948	   -0.003838	   -0.032770	   -0.036609	    0.062350	    0.039847	    0.102196	    0.037548	    0.044939	    0.082488	   -0.080678	   -0.133317	   -0.213995	   -0.044309	   -0.080704	   -0.125014	    0.105237	    0.126611	    0.231848	   -0.006233	    0.021236	    0.015003	   -0.108493	   -0.099674	   -0.208166	   -0.008016	   -0.064939	   -0.072956	   -0.012730	    0.001324	   -0.011406	   -0.032284	   -0.059292	   -0.091576	   -0.104069	   -0.220245	   -0.324314	    0.052128	    0.054106	    0.106234	    0.018927	    0.000008	    0.018935	   -0.066213	   -0.047959	   -0.114172	   -0.008574	   -0.044934	   -0.053508	   -0.005646	   -0.013371	   -0.019017	   -0.014803	   -0.039218	   -0.054021	   -0.028296	   -0.073031	   -0.101327	    0.059367	    0.017644	    0.077010	   -0.008405	    0.013744	    0.005339
     1.800	0	0	    0	    0.002097	    0.055757	    0.057854	    0.005729	   -0.033993	   -0.028264	    0.045891	   -0.003052	    0.042839	    0.007835	    0.018977	    0.026812	   -0.053948	   -0.120100	   -0.174047	   -0.003084	   -0.082649	   -0.085733	    0.103237	    0.061014	    0.164251	   -0.028085	    0.008719	   -0.019365	   -0.069333	   -0.083356	   -0.152689	   -0.003052	   -0.053654	   -0.056707	   -0.022785	   -0.020300	   -0.043084	   -0.025384	   -0.048627	   -0.074011	   -0.047811	   -0.176844	   -0.224656	    0.046909	    0.033136	    0.080045	    0.017490	   -0.015026	    0.002464	   -0.054276	   -0.050179	   -0.104454	    0.008416	   -0.028148	   -0.019732	   -0.017906	   -0.026358	   -0.044264	   -0.027971	   -0.035234	   -0.063205	   -0.010115	   -0.060743	   -0.070857	    0.048250	    0.019194	    0.067444	    0.022894	   -0.006255	    0.016639
     1.875	0	0	    0	   -0.006181	    0.026718	    0.020537	    0.002084	   -0.026508	   -0.024424	    0.035141	    0.004046	    0.039187	    0.001095	   -0.006565	   -0.005470	   -0.062785	   -0.109563	   -0.172348	   -0.022608	   -0.077745	   -0.100354	    0.093668	    0.069232	    0.162900	   -0.041527	   -0.017296	   -0.058823	   -0.065054	   -0.056198	   -0.121252	   -0.005785	   -0.040657	   -0.046442	   -0.028498	   -0.026252	   -0.054750	   -0.028741	   -0.044538	   -0.073279	   -0.060347	   -0.157189	   -0.217535	    0.037199	    0.048996	    0.086195	    0.071998	    0.026498	    0.098496	   -0.053816	   -0.045951	   -0.099768	    0.014368	   -0.014576	   -0.000207	   -0.012812	   -0.021793	   -0.034604	   -0.032705	   -0.042209	   -0.074914	   -0.011766	   -0.045443	   -0.057209	    0.037011	    0.006541	    0.043552	    0.089111	    0.061371	    0.150481
     1.950	0	0	    0	   -0.024942	    0.028319	    0.003376	   -0.006352	   -0.026736	   -0.033087	    0.014627	    0.006740	    0.021367	   -0.004272	   -0.008793	   -0.013066	   -0.064786	   -0.111948	   -0.176733	   -0.032657	   -0.078124	   -0.110781	    0.043841	    0.082039	    0.125880	   -0.048887	   -0.017639	   -0.066526	   -0.054273	   -0.061440	   -0.115713	   -0.005539	   -0.038177	   -0.043716	   -0.032933	   -0.028285	   -0.061219	   -0.027374	   -0.043863	   -0.071236	   -0.061855	   -0.159644	   -0.221499	    0.013945	    0.041802	    0.055747	    0.047583	    0.026985	    0.074567	   -0.046445	   -0.049685	   -0.096130	    0.019847	   -0.012003	    0.007843	   -0.020242	   -0.019343	   -0.039585	   -0.035186	   -0.042700	   -0.077886	   -0.000798	   -0.042269	   -0.043067	    0.029687	    0.003877	    0.033564	    0.128202	    0.096213	    0.224415
     2.025	0	0	    0	   -0.016889	    0.016078	   -0.000811	   -0.007805	   -0.027638	   -0.035443	    0.004568	   -0.002676	    0.001892	   -0.013033	   -0.007346	   -0.020379	   -0.045512	   -0.094295	   -0.139807	   -0.025550	   -0.059552	   -0.085102	    0.009109	    0.045996	    0.055105	   -0.041927	   -0.027512	   -0.069439	   -0.039564	   -0.038632	   -0.078195	    0.015674	   -0.028899	   -0.013225	   -0.034211	   -0.029220	   -0.063430	   -0.022039	   -0.036165	   -0.058204	   -0.032136	   -0.114601	   -0.146737	   -0.000288	    0.030986	    0.030698	    0.027905	    0.010702	    0.038607	   -0.035520	   -0.028575	   -0.064095	    0.001056	   -0.003674	   -0.002618	   -0.024887	   -0.021123	   -0.046009	   -0.030858	   -0.034806	   -0.065664	    0.003806	   -0.027097	   -0.023291	    0.046751	    0.026829	    0.073580	    0.085090	    0.122872	    0.207962
     2.100	0	0	    0	   -0.033260	    0.030281	   -0.002979	   -0.008366	   -0.026101	   -0.034467	   -0.003266	   -0.003566	   -0.006832	   -0.014748	   -0.008674	   -0.023422	   -0.039213	   -0.057439	   -0.096651	   -0.015369	   -0.035301	   -0.050670	    0.000185	    0.010460	    0.010645	   -0.037302	   -0.021320	   -0.058622	   -0.047478	   -0.059999	   -0.107477	    0.037284	    0.001909	    0.039194	   -0.027473	   -0.024939	   -0.052413	   -0.008500	   -0.017656	   -0.026156	   -0.035026	   -0.064655	   -0.099681	   -0.013677	    0.025888	    0.012211	   -0.070276	    0.064418	   -0.005858	   -0.070211	   -0.057429	   -0.127639	    0.029524	    0.002044	    0.031568	   -0.009915	    0.005117	   -0.004798	   -0.021262	   -0.022368	   -0.043630	    0.043492	    0.018489	    0.061981	    0.032724	    0.031888	    0.064612	    0.057925	    0.059112	    0.117037
     2.175	0	0	    0	   -0.014683	    0.020735	    0.006052	   -0.008390	   -0.021287	   -0.029678	   -0.007309	   -0.000033	   -0.007342	   -0.012027	   -0.002417	   -0.014444	   -0.014670	   -0.039186	   -0.053856	    0.010000	   -0.004544	    0.005456	   -0.011183	    0.013844	    0.002661	   -0.043676	   -0.027055	   -0.070731	   -0.038172	   -0.058743	   -0.096914	    0.037474	    0.038310	    0.075784	   -0.025513	   -0.019079	   -0.044592	   -0.003888	   -0.002829	   -0.006717	   -0.013770	   -0.035202	   -0.048972	   -0.004190	   -0.002515	   -0.006705	   -0.030665	   -0.034660	   -0.065325	   -0.076785	   -0.075437	   -0.152222	    0.055939	    0.041929	    0.097868	   -0.006821	    0.022634	    0.015812	   -0.018353	   -0.009400	   -0.027753	    0.051986	    0.046365	    0.098351	    0.043160	    0.036567	    0.079727	   -0.017835	    0.015098	   -0.002738
     2.250	0	0	    0	   -0.012439	    0.026689	    0.014249	   -0.011204	   -0.014829	   -0.026032	   -0.012530	    0.003475	   -0.009055	   -0.011468	   -0.001338	   -0.012806	   -0.009856	   -0.017177	   -0.027033	    0.003691	    0.023873	    0.027564	   -0.031634	    0.023560	   -0.008074	   -0.047557	   -0.030900	   -0.078457	   -0.037935	   -0.054867	   -0.092802	    0.041912	    0.043312	    0.085223	   -0.025101	   -0.016154	   -0.041254	   -0.004881	    0.003136	   -0.001745	    0.000495	   -0.020845	   -0.020349	   -0.003454	    0.009931	    0.006477	   -0.047888	   -0.018536	   -0.066424	   -0.076160	   -0.074208	   -0.150368	    0.060442	    0.059013	    0.119455	   -0.002263	    0.025844	    0.023581	   -0.018096	   -0.005565	   -0.023661	    0.059764	    0.052181	    0.111945	    0.053091	    0.033072	    0.086162	   -0.018317	   -0.016828	   -0.035145
     2.325	0	0	    0	    0.014280	    0.008644	    0.022924	   -0.006340	   -0.021104	   -0.027443	   -0.000262	   -0.011058	   -0.011321	   -0.011510	   -0.002177	   -0.013687	    0.000456	   -0.017981	   -0.017525	    0.009726	    0.015527	    0.025253	   -0.033148	    0.007929	   -0.025219	   -0.045761	   -0.040474	   -0.086235	   -0.032115	   -0.055656	   -0.087772	    0.051756	    0.044396	    0.096151	   -0.025247	   -0.016860	   -0.042106	   -0.003110	    0.004430	    0.001320	    0.001333	   -0.015340	   -0.014007	   -0.008699	    0.001361	   -0.007338	   -0.021622	   -0.033333	   -0.054955	   -0.067423	   -0.073095	   -0.140518	    0.071505	    0.063313	    0.134818	    0.008254	    0.032071	    0.040325	   -0.018662	   -0.004360	   -0.023022	    0.064108	    0.056914	    0.121022	    0.041844	    0.037021	    0.078864	    0.001452	   -0.026040	   -0.024588
     2.400	0	0	    0	   -0.010916	    0.034823	    0.023906	   -0.009576	   -0.022925	   -0.032501	   -0.002474	   -0.005299	   -0.007773	   -0.012265	   -0.002851	   -0.015115	   -0.007058	   -0.012053	   -0.019111	    0.004417	   -0.001512	    0.002905	    0.033237	   -0.009246	    0.023991	   -0.052566	   -0.042015	   -0.094582	   -0.035388	   -0.049204	   -0.084593	    0.048720	    0.051199	    0.099919	   -0.033472	   -0.017582	   -0.051053	   -0.003996	    0.007289	    0.003293	   -0.010094	   -0.010296	   -0.020390	   -0.021396	   -0.007221	   -0.028617	   -0.005839	    0.007045	    0.001205	   -0.065893	   -0.074097	   -0.139991	    0.077076	    0.067978	    0.145054	    0.017158	    0.036931	    0.054089	   -0.024705	   -0.003553	   -0.028257	    0.061598	    0.059403	    0.121001	    0.028803	    0.031560	    0.060364	    0.038888	    0.015470	    0.054358
     2.475	0	0	    0	    0.009509	    0.026391	    0.035900	   -0.028946	   -0.037597	   -0.066543	    0.022817	   -0.007846	    0.014970	   -0.026909	   -0.009650	   -0.036559	   -0.003365	   -0.002307	   -0.005672	   -0.002891	   -0.005939	   -0.008829	    0.086887	    0.044186	    0.131073	   -0.056324	   -0.046210	   -0.102534	   -0.100147	   -0.049480	   -0.149627	   -0.010485	    0.034301	    0.023816	   -0.041057	   -0.038976	   -0.080033	   -0.027530	    0.004396	   -0.023134	   -0.050561	   -0.018718	   -0.069279	   -0.008118	    0.006237	   -0.001881	    0.068573	    0.025831	    0.094404	   -0.101925	   -0.070340	   -0.172265	    0.050089	    0.081530	    0.131620	    0.000413	    0.029604	    0.030017	   -0.024720	   -0.026816	   -0.051536	    0.038192	    0.063962	    0.102154	    0.012740	    0.016961	    0.029701	    0.058401	    0.035492	    0.093893
     2.550	0	0	    0	    0.019476	    0.025555	    0.045031	   -0.020382	   -0.045528	   -0.065911	    0.039406	    0.006290	    0.045695	   -0.010892	   -0.021777	   -0.032668	   -0.056235	   -0.035946	   -0.092181	   -0.033125	   -0.028123	   -0.061248	    0.115544	    0.093322	    0.208866	   -0.054326	   -0.048707	   -0.103033	   -0.137813	   -0.120376	   -0.258189	   -0.041748	   -0.051723	   -0.093472	   -0.011576	   -0.033707	   -0.045283	   -0.056384	   -0.037167	   -0.093552	   -0.095712	   -0.089119	   -0.184831	    0.016925	    0.030983	    0.047908	    0.069764	    0.038362	    0.108127	   -0.103599	   -0.106986	   -0.210585	   -0.017601	   -0.011503	   -0.029104	    0.013323	   -0.009313	    0.004010	   -0.007050	   -0.042908	   -0.049959	   -0.031394	    0.010375	   -0.021018	    0.018017	    0.008513	    0.026530	    0.078738	    0.077463	    0.156201
     2.625	0	0	    0	    0.025192	    0.040082	    0.065274	   -0.019801	   -0.043518	   -0.063318	    0.051462	    0.012387	    0.063849	    0.005260	    0.000426	    0.005686	   -0.070285	   -0.100679	   -0.170964	   -0.028167	   -0.072125	   -0.100292	    0.141335	    0.069670	    0.211005	   -0.039710	   -0.030985	   -0.070696	   -0.146035	   -0.116302	   -0.262336	   -0.044169	   -0.088186	   -0.132356	   -0.003470	   -0.015720	   -0.019190	   -0.061316	   -0.065492	   -0.126808	   -0.107176	   -0.142422	   -0.249598	    0.021272	    0.041217	    0.062489	    0.068476	    0.033503	    0.101979	   -0.099759	   -0.076718	   -0.176476	   -0.032439	   -0.056221	   -0.088660	    0.011438	   -0.023017	   -0.011579	    0.000054	   -0.045314	   -0.045260	   -0.042193	   -0.042872	   -0.085065	    0.005615	    0.028806	    0.034420	    0.089321	    0.113159	    0.202480
     2.700	0	0	    0	    0.018230	    0.050101	    0.068331	   -0.023211	   -0.043954	   -0.067165	    0.046516	    0.018102	    0.064618	    0.015591	    0.013539	    0.029130	   -0.065281	   -0.114498	   -0.179779	   -0.037179	   -0.077643	   -0.114822	    0.102607	    0.110820	    0.213427	   -0.033421	   -0.013471	   -0.046892	   -0.135709	   -0.120921	   -0.256630	   -0.039145	   -0.096143	   -0.135288	   -0.026751	   -0.010203	   -0.036954	   -0.054886	   -0.071967	   -0.126853	   -0.104029	   -0.162554	   -0.266583	    0.016243	    0.048206	    0.064449	    0.060932	    0.047110	    0.108041	   -0.097011	   -0.070903	   -0.167915	   -0.030032	   -0.074804	   -0.104836	   -0.012697	   -0.028292	   -0.040989	   -0.020842	   -0.043239	   -0.064081	   -0.040424	   -0.051147	   -0.091571	    0.000186	    0.022693	    0.022879	    0.111397	    0.135263	    0.246660
     2.775	0	0	    0	   -0.020628	    0.042608	    0.021980	   -0.024717	   -0.049591	   -0.074309	    0.001008	    0.005227	    0.006235	   -0.014734	    0.006221	   -0.008513	   -0.076682	   -0.110865	   -0.187547	   -0.032353	   -0.077227	   -0.109580	    0.030489	    0.073378	    0.103867	   -0.066245	   -0.020784	   -0.087029	   -0.105592	   -0.108502	   -0.214094	   -0.030347	   -0.083650	   -0.113997	   -0.047939	   -0.035788	   -0.083727	   -0.048098	   -0.063701	   -0.111799	   -0.076564	   -0.170383	   -0.246947	   -0.008706	    0.037653	    0.028947	    0.032034	    0.034797	    0.066831	   -0.093377	   -0.077685	   -0.171062	   -0.013119	   -0.061439	   -0.074558	   -0.040242	   -0.041821	   -0.082063	   -0.040199	   -0.045116	   -0.085315	   -0.017068	   -0.045956	   -0.063024	    0.009937	    0.015821	    0.025759	    0.038891	    0.099825	    0.138716
     2.850	0	0	    0	   -0.006896	   -0.006066	   -0.012962	   -0.018201	   -0.039200	   -0.057401	    0.000401	   -0.012634	   -0.012233	   -0.015899	   -0.014733	   -0.030633	   -0.038107	   -0.090085	   -0.128192	   -0.014006	   -0.037022	   -0.051028	    0.007568	    0.031539	    0.039107	   -0.063245	   -0.063261	   -0.126506	   -0.041662	   -0.064422	   -0.106084	    0.002007	   -0.058427	   -0.056420	   -0.038255	   -0.030024	   -0.068279	   -0.029599	   -0.045456	   -0.075055	   -0.027004	   -0.083144	   -0.110149	   -0.013550	    0.032619	    0.019068	   -0.023380	    0.019072	   -0.004308	   -0.050936	   -0.049310	   -0.100246	   -0.011291	   -0.040412	   -0.051703	   -0.038736	   -0.038395	   -0.077131	   -0.028217	   -0.030714	   -0.058931	    0.013447	   -0.013694	   -0.000246	    0.036136	    0.042280	    0.078416	    0.024049	    0.048945	    0.072994
     2.925	0	0	    0	   -0.010001	   -0.003278	   -0.013280	   -0.011347	   -0.032044	   -0.043390	   -0.006656	   -0.004203	   -0.010859	   -0.018957	   -0.013581	   -0.032538	   -0.010434	   -0.044932	   -0.055366	   -0.002210	    0.002753	    0.000543	    0.000038	    0.022326	    0.022364	   -0.049194	   -0.062872	   -0.112066	   -0.042173	   -0.063286	   -0.105460	    0.034498	   -0.009443	    0.025056	   -0.031921	   -0.026622	   -0.058543	   -0.008428	   -0.015355	   -0.023783	   -0.002221	   -0.036779	   -0.038999	   -0.013609	    0.005953	   -0.007657	   -0.006555	   -0.022210	   -0.028766	   -0.062717	   -0.060058	   -0.122775	    0.048399	   -0.011393	    0.037006	   -0.015261	   -0.018854	   -0.034115	   -0.016937	   -0.009126	   -0.026063	    0.066876	    0.043187	    0.110062	    0.044370	    0.033104	    0.077474	    0.003908	    0.028367	    0.032275
     3.000	0	0	    0	    0.004491	    0.005356	    0.009847	   -0.008611	   -0.024546	   -0.033158	   -0.003276	   -0.005807	   -0.009083	   -0.014105	   -0.011077	   -0.025182	    0.002884	   -0.016640	   -0.013756	    0.010416	    0.009666	    0.020082	    0.005172	    0.020268	    0.025440	   -0.049940	   -0.045299	   -0.095239	   -0.026740	   -0.053073	   -0.079814	    0.040326	    0.020489	    0.060815	   -0.029060	   -0.023244	   -0.052303	   -0.005844	    0.003072	   -0.002772	    0.005483	   -0.009247	   -0.003764	   -0.020484	   -0.012388	   -0.032872	    0.004498	   -0.031875	   -0.027377	   -0.058206	   -0.066513	   -0.124720	    0.069673	    0.030758	    0.100431	   -0.008537	    0.003906	   -0.004631	   -0.014409	   -0.003745	   -0.018154	    0.074126	    0.063153	    0.137279	    0.043633	    0.030032	    0.073665	    0.003730	    0.009263	    0.012993
     3.075	0	0	    0	    0.008685	    0.012318	    0.021004	   -0.024755	   -0.025474	   -0.050229	    0.020591	   -0.005848	    0.014744	   -0.016421	   -0.004078	   -0.020499	    0.008978	   -0.008033	    0.000945	   -0.019870	    0.018343	   -0.001527	    0.056612	    0.014912	    0.071525	   -0.051999	   -0.059003	   -0.111002	   -0.060680	   -0.030166	   -0.090846	    0.009734	    0.024376	    0.034110	   -0.044998	   -0.024576	   -0.069574	   -0.008750	    0.006116	   -0.002635	   -0.021852	    0.002002	   -0.019850	   -0.028043	   -0.015380	   -0.043423	    0.018544	   -0.005773	    0.012771	   -0.084391	   -0.060814	   -0.145205	    0.078715	    0.039056	    0.117771	    0.005144	    0.020351	    0.025494	   -0.022086	   -0.013588	   -0.035674	    0.070926	    0.069711	    0.140637	    0.020515	    0.032988	    0.053503	    0.005189	    0.001819	    0.007009
     3.150	0	0	    0	    0.013799	    0.021889	    0.035689	   -0.019886	   -0.037273	   -0.057159	    0.040492	    0.011789	    0.052281	   -0.015670	   -0.019851	   -0.035521	   -0.034961	   -0.012842	   -0.047803	   -0.021253	   -0.000672	   -0.021924	    0.109166	    0.097134	    0.206300	   -0.052894	   -0.066334	   -0.119228	   -0.125938	   -0.100567	   -0.226505	   -0.021770	   -0.048830	   -0.070601	   -0.017456	   -0.033108	   -0.050564	   -0.048435	   -0.024707	   -0.073142	   -0.065199	   -0.061956	   -0.127155	    0.013485	    0.020831	    0.034316	    0.067601	    0.046356	    0.113957	   -0.099096	   -0.102158	   -0.201254	    0.010111	   -0.001009	    0.009103	    0.009452	   -0.012877	   -0.003424	   -0.009554	   -0.035171	   -0.044725	   -0.001790	    0.024025	    0.022235	    0.037914	    0.005594	    0.043508	    0.063233	    0.020974	    0.084206
     3.225	0	0	    0	    0.030057	    0.042489	    0.072546	   -0.013385	   -0.036201	   -0.049586	    0.050075	    0.021634	    0.071708	    0.006791	   -0.007205	   -0.000413	   -0.048725	   -0.076331	   -0.125056	   -0.022463	   -0.029350	   -0.051813	    0.125615	    0.110918	    0.236533	   -0.040832	   -0.048045	   -0.088876	   -0.126039	   -0.112988	   -0.239027	   -0.030326	   -0.080193	   -0.110520	   -0.010368	   -0.014159	   -0.024527	   -0.048680	   -0.057032	   -0.105712	   -0.069518	   -0.111254	   -0.180772	    0.032748	    0.051006	    0.083754	    0.084675	    0.041971	    0.126646	   -0.083427	   -0.085361	   -0.168789	   -0.011477	   -0.052773	   -0.064250	    0.009968	   -0.022447	   -0.012479	   -0.003787	   -0.037493	   -0.041280	   -0.014761	   -0.024004	   -0.038764	    0.039791	    0.034561	    0.074353	    0.091542	    0.071697	    0.163238
     3.300	0	0	    0	    0.014139	    0.061410	    0.075549	   -0.005386	   -0.037434	   -0.042820	    0.071488	    0.015384	    0.086872	    0.021168	    0.003913	    0.025081	   -0.051140	   -0.089997	   -0.141137	   -0.013698	   -0.064054	   -0.077752	    0.162561	    0.078050	    0.240611	   -0.038792	   -0.034918	   -0.073710	   -0.127533	   -0.115937	   -0.243470	   -0.031257	   -0.092333	   -0.123590	    0.009451	   -0.009734	   -0.000283	   -0.044990	   -0.065722	   -0.110712	   -0.091242	   -0.121403	   -0.212645	    0.045657	    0.049308	    0.094965	    0.089111	    0.039207	    0.128318	   -0.078515	   -0.079491	   -0.158007	   -0.018243	   -0.069889	   -0.088133	    0.014214	   -0.035972	   -0.021759	    0.008252	   -0.048766	   -0.040514	   -0.016736	   -0.037871	   -0.054607	    0.029799	    0.036816	    0.066615	    0.126054	    0.112255	    0.238310
     3.375	0	0	    0	    0.031674	    0.052100	    0.083774	   -0.010267	   -0.036668	   -0.046934	    0.053205	    0.032161	    0.085366	    0.023268	    0.026396	    0.049664	   -0.045994	   -0.110893	   -0.156887	   -0.027257	   -0.062098	   -0.089355	    0.110330	    0.127248	    0.237579	   -0.026702	   -0.030821	   -0.057523	   -0.129177	   -0.103431	   -0.232607	   -0.022381	   -0.096048	   -0.118429	   -0.022284	   -0.005720	   -0.028005	   -0.039142	   -0.066427	   -0.105569	   -0.083802	   -0.149301	   -0.233103	    0.033889	    0.057064	    0.090952	    0.063608	    0.051217	    0.114825	   -0.086496	   -0.062236	   -0.148732	   -0.025142	   -0.072110	   -0.097251	   -0.012967	   -0.034921	   -0.047888	   -0.013156	   -0.041878	   -0.055034	   -0.011954	   -0.040877	   -0.052831	    0.022021	    0.024624	    0.046645	    0.095724	    0.139409	    0.235132
     3.450	0	0	    0	   -0.000917	    0.029171	    0.028254	   -0.013815	   -0.047622	   -0.061437	    0.014843	    0.003674	    0.018517	   -0.008123	    0.003864	   -0.004258	   -0.052420	   -0.101239	   -0.153659	   -0.019670	   -0.071461	   -0.091131	    0.041320	    0.068239	    0.109560	   -0.061988	   -0.035487	   -0.097475	   -0.090585	   -0.090858	   -0.181443	   -0.028349	   -0.082227	   -0.110575	   -0.041644	   -0.033232	   -0.074876	   -0.035505	   -0.055778	   -0.091284	   -0.047702	   -0.146310	   -0.194012	   -0.013868	    0.050316	    0.036447	   -0.022986	    0.078937	    0.055951	   -0.078433	   -0.065201	   -0.143634	   -0.020606	   -0.053757	   -0.074363	   -0.043565	   -0.049715	   -0.093279	   -0.032879	   -0.039963	   -0.072842	    0.003429	   -0.030170	   -0.026741	    0.020139	    0.015526	    0.035665	    0.038772	    0.054955	    0.093727
     3.525	0	0	    0	   -0.025591	    0.023931	   -0.001659	   -0.019448	   -0.036870	   -0.056318	   -0.005883	   -0.005924	   -0.011806	   -0.024237	   -0.008764	   -0.033000	   -0.033864	   -0.064186	   -0.098050	   -0.025382	   -0.018576	   -0.043957	   -0.018303	    0.057415	    0.039112	   -0.071729	   -0.063398	   -0.135127	   -0.052810	   -0.054039	   -0.106848	   -0.009986	   -0.066617	   -0.076603	   -0.039846	   -0.031633	   -0.071479	   -0.030453	   -0.037534	   -0.067987	   -0.026242	   -0.047852	   -0.074094	   -0.028029	    0.041338	    0.013310	   -0.035041	    0.046806	    0.011764	   -0.057854	   -0.051873	   -0.109728	   -0.016223	   -0.054077	   -0.070300	   -0.050632	   -0.052004	   -0.102636	   -0.030308	   -0.028289	   -0.058597	    0.018587	   -0.004391	    0.014196	    0.021981	    0.047669	    0.069650	    0.033174	    0.043421	    0.076595
     3.600	0	0	    0	    0.001101	   -0.005618	   -0.004517	   -0.013688	   -0.033212	   -0.046900	   -0.009439	   -0.004836	   -0.014275	   -0.023718	   -0.012110	   -0.035828	   -0.011407	   -0.028323	   -0.039730	    0.002080	   -0.005059	   -0.002978	    0.023129	    0.007271	    0.030401	   -0.060661	   -0.066884	   -0.127545	   -0.048665	   -0.066037	   -0.114702	    0.010360	   -0.035636	   -0.025275	   -0.037036	   -0.028206	   -0.065242	   -0.015299	   -0.015878	   -0.031177	   -0.006100	   -0.024530	   -0.030630	   -0.031914	    0.014015	   -0.017899	   -0.014235	    0.019184	    0.004949	   -0.082495	   -0.073186	   -0.155681	    0.026764	   -0.034601	   -0.007837	   -0.043512	   -0.042640	   -0.086152	   -0.022994	   -0.011375	   -0.034369	    0.060424	    0.041179	    0.101603	    0.032931	    0.030246	    0.063177	    0.015993	    0.016698	    0.032691
     3.675	0	0	    0	   -0.008959	    0.016823	    0.007864	   -0.010141	   -0.032746	   -0.042888	   -0.005214	   -0.013058	   -0.018272	   -0.016637	   -0.011773	   -0.028411	   -0.002684	   -0.008000	   -0.010684	   -0.003021	    0.010077	    0.007057	    0.010020	    0.014101	    0.024121	   -0.072736	   -0.069267	   -0.142002	   -0.043162	   -0.050437	   -0.093599	    0.007218	   -0.018848	   -0.011631	   -0.033660	   -0.027539	   -0.061200	   -0.016084	   -0.001449	   -0.017533	   -0.006674	   -0.001671	   -0.008345	   -0.037923	    0.005782	   -0.032141	   -0.012978	    0.020704	    0.007726	   -0.089527	   -0.080779	   -0.170306	    0.032594	   -0.000682	    0.031913	   -0.041222	   -0.034698	   -0.075920	   -0.023340	   -0.004265	   -0.027606	    0.064312	    0.061471	    0.125782	    0.033602	    0.029491	    0.063092	    0.001708	    0.014165	    0.015873
     3.750	0	0	    0	   -0.002585	    0.022121	    0.019536	   -0.013889	   -0.024186	   -0.038076	   -0.015795	   -0.007201	   -0.022996	   -0.015504	   -0.008576	   -0.024080	   -0.001598	    0.001215	   -0.000384	   -0.008264	    0.019819	    0.011555	   -0.007665	    0.026916	    0.019251	   -0.072151	   -0.083409	   -0.155560	   -0.044571	   -0.046506	   -0.091077	    0.001765	   -0.016967	   -0.015202	   -0.036200	   -0.021213	   -0.057413	   -0.016229	   -0.000472	   -0.016701	   -0.004905	    0.006727	    0.001822	   -0.045164	    0.002215	   -0.042949	   -0.014315	    0.020262	    0.005946	   -0.094860	   -0.090957	   -0.185817	    0.033789	    0.004983	    0.038773	   -0.037356	   -0.031752	   -0.069108	   -0.022956	   -0.004223	   -0.027179	    0.058305	    0.066750	    0.125055	    0.026617	    0.033563	    0.060180	    0.000420	    0.001014	    0.001434
     3.825	0	0	    0	    0.010786	    0.004029	    0.014815	   -0.014737	   -0.021893	   -0.036630	    0.000963	    0.004127	    0.005089	   -0.025068	   -0.005574	   -0.030642	   -0.005643	    0.003846	   -0.001798	   -0.028852	   -0.001019	   -0.029871	    0.051332	    0.043284	    0.094616	   -0.073022	   -0.080272	   -0.153293	   -0.066783	   -0.041896	   -0.108680	   -0.004790	   -0.022249	   -0.027039	   -0.041315	   -0.026558	   -0.067874	   -0.036326	    0.005117	   -0.031208	   -0.050213	    0.001694	   -0.048519	   -0.033831	   -0.001853	   -0.035684	    0.063688	    0.029987	    0.093675	   -0.116290	   -0.093175	   -0.209465	    0.034002	    0.010630	    0.044631	   -0.017679	   -0.022123	   -0.039802	   -0.032479	   -0.014431	   -0.046910	    0.027768	    0.071388	    0.099156	    0.001388	    0.018045	    0.019433	    0.033401	   -0.000895	    0.032506
     3.900	0	0	    0	    0.012659	    0.014190	    0.026849	   -0.005750	   -0.024562	   -0.030312	    0.024083	   -0.001820	    0.022262	   -0.025734	   -0.017720	   -0.043454	   -0.026338	   -0.019283	   -0.045621	   -0.020384	   -0.002579	   -0.022963	    0.072473	    0.069930	    0.142403	   -0.073194	   -0.083515	   -0.156709	   -0.067132	   -0.060540	   -0.127672	   -0.000835	   -0.032366	   -0.033201	   -0.038396	   -0.029977	   -0.068373	   -0.037398	   -0.023203	   -0.060601	   -0.052975	   -0.050483	   -0.103457	   -0.007668	    0.004357	   -0.003311	    0.075807	    0.024105	    0.099912	   -0.110208	   -0.101978	   -0.212186	    0.034127	    0.004986	    0.039113	   -0.007151	   -0.012870	   -0.020021	   -0.026701	   -0.023808	   -0.050509	    0.018121	    0.033000	    0.051121	    0.016258	    0.003734	    0.019992	    0.082420	    0.043966	    0.126387
     3.975	0	0	    0	   -0.007967	    0.022248	    0.014281	   -0.009372	   -0.029396	   -0.038768	    0.030418	   -0.000800	    0.029618	   -0.023799	   -0.013003	   -0.036802	   -0.032616	   -0.027566	   -0.060181	   -0.017019	   -0.011277	   -0.028296	    0.073635	    0.050474	    0.124110	   -0.081885	   -0.086072	   -0.167957	   -0.077087	   -0.066055	   -0.143142	   -0.000588	   -0.041258	   -0.041845	   -0.037558	   -0.029921	   -0.067480	   -0.029795	   -0.027457	   -0.057251	   -0.049674	   -0.066046	   -0.115720	   -0.008778	    0.010459	    0.001681	    0.052917	    0.039435	    0.092352	   -0.106395	   -0.104754	   -0.211149	    0.038296	    0.003430	    0.041726	   -0.008852	   -0.015115	   -0.023967	   -0.020611	   -0.019667	   -0.040278	    0.022213	    0.016182	    0.038395	    0.021801	    0.003554	    0.025355	    0.085695	    0.083505	    0.169201
     4.050	0	0	    0	   -0.002585	    0.022121	    0.019536	   -0.000415	   -0.032457	   -0.032872	    0.029342	   -0.000695	    0.028647	   -0.019260	   -0.015899	   -0.035159	   -0.029538	   -0.029984	   -0.059523	   -0.016435	   -0.017245	   -0.033679	    0.067817	    0.047690	    0.115507	   -0.075299	   -0.090225	   -0.165524	   -0.064490	   -0.081157	   -0.145647	    0.003633	   -0.048569	   -0.044936	   -0.034554	   -0.030666	   -0.065220	   -0.026142	   -0.023361	   -0.049502	   -0.046018	   -0.067968	   -0.113986	   -0.005304	    0.007348	    0.002043	    0.047231	    0.041799	    0.089031	   -0.093958	   -0.106868	   -0.200826	    0.043059	   -0.012403	    0.030656	   -0.013052	   -0.018643	   -0.031696	   -0.017257	   -0.015113	   -0.032369	    0.029695	    0.013361	    0.043056	    0.024459	    0.005433	    0.029892	    0.090276	    0.086753	    0.177029
     4.125	0	0	    0	   -0.007781	    0.024142	    0.016360	    0.005145	   -0.027340	   -0.022195	    0.025849	    0.000809	    0.026658	   -0.017769	   -0.013500	   -0.031269	   -0.030453	   -0.023336	   -0.053788	   -0.015571	   -0.009335	   -0.024906	    0.076387	    0.031405	    0.107792	   -0.074762	   -0.091794	   -0.166556	   -0.056653	   -0.073505	   -0.130157	    0.003875	   -0.045161	   -0.041286	   -0.032762	   -0.027890	   -0.060652	   -0.021590	   -0.017337	   -0.038927	   -0.049881	   -0.061150	   -0.111032	   -0.012245	    0.006120	   -0.006125	    0.051468	    0.023866	    0.075335	   -0.092030	   -0.103252	   -0.195282	    0.041288	   -0.011670	    0.029618	   -0.014746	   -0.019895	   -0.034640	   -0.019886	   -0.013006	   -0.032892	    0.030766	    0.022534	    0.053299	    0.020372	    0.005298	    0.025671	    0.060712	    0.076625	    0.137337
     4.200	0	0	    0	   -0.005788	    0.026083	    0.020295	    0.000701	   -0.018367	   -0.017666	    0.015005	    0.008266	    0.023272	   -0.019622	   -0.010885	   -0.030506	   -0.024121	   -0.025410	   -0.049532	   -0.016374	    0.003876	   -0.012498	    0.056468	    0.055250	    0.111718	   -0.073831	   -0.086735	   -0.160566	   -0.048385	   -0.067007	   -0.115392	    0.003414	   -0.039448	   -0.036034	   -0.032112	   -0.025139	   -0.057251	   -0.019280	   -0.016001	   -0.035281	   -0.039137	   -0.063965	   -0.103102	   -0.019527	    0.009772	   -0.009755	    0.011845	    0.065672	    0.077517	   -0.078075	   -0.101602	   -0.179678	    0.042942	   -0.008092	    0.034850	   -0.025870	   -0.021558	   -0.047428	   -0.017100	   -0.013178	   -0.030279	    0.039586	    0.024547	    0.064133	    0.026999	    0.002042	    0.029040	    0.009225	    0.034046	    0.043271
     4.275	0	0	    0	   -0.001709	    0.017622	    0.015913	   -0.003742	   -0.020307	   -0.024049	    0.003902	    0.002786	    0.006687	   -0.019973	   -0.010432	   -0.030405	   -0.019065	   -0.019790	   -0.038855	   -0.002830	   -0.008301	   -0.011132	    0.044063	    0.036581	    0.080644	   -0.060415	   -0.087849	   -0.148265	   -0.039675	   -0.048744	   -0.088419	    0.015270	   -0.031765	   -0.016494	   -0.032098	   -0.024929	   -0.057027	   -0.012130	   -0.010335	   -0.022465	   -0.006622	   -0.053741	   -0.060363	   -0.025766	    0.004538	   -0.021228	   -0.006759	    0.028367	    0.021607	   -0.059901	   -0.078776	   -0.138677	    0.043191	    0.005285	    0.048476	   -0.034973	   -0.031402	   -0.066375	   -0.018290	   -0.005967	   -0.024256	    0.052467	    0.036947	    0.089414	    0.054147	    0.012912	    0.067059	   -0.003435	    0.009332	    0.005897
     4.350	0	0	    0	    0.018672	    0.012253	    0.030925	   -0.001336	   -0.022897	   -0.024233	    0.002722	   -0.004963	   -0.002241	   -0.017259	   -0.014012	   -0.031271	    0.001523	   -0.011300	   -0.009776	    0.013941	   -0.000504	    0.013437	    0.024530	    0.022222	    0.046751	   -0.056151	   -0.088242	   -0.144393	   -0.027170	   -0.042506	   -0.069676	    0.023251	   -0.016651	    0.006600	   -0.030665	   -0.023997	   -0.054663	   -0.008536	   -0.001766	   -0.010302	    0.007631	   -0.010948	   -0.003317	   -0.018339	   -0.008879	   -0.027218	    0.016422	   -0.018902	   -0.002480	   -0.060725	   -0.074008	   -0.134733	    0.060982	    0.008195	    0.069176	   -0.031321	   -0.029930	   -0.061250	   -0.016539	   -0.007304	   -0.023843	    0.068333	    0.043756	    0.112089	    0.053713	    0.027389	    0.081101	   -0.018977	   -0.010296	   -0.029273
     4.425	0	0	    0	   -0.002199	    0.014856	    0.012656	   -0.000709	   -0.025785	   -0.026494	   -0.004310	   -0.004895	   -0.009205	   -0.020048	   -0.010183	   -0.030231	    0.003521	    0.006830	    0.010351	    0.010720	    0.015979	    0.026699	    0.021280	    0.009709	    0.030990	   -0.065917	   -0.080310	   -0.146227	   -0.025464	   -0.042138	   -0.067602	    0.017849	   -0.013112	    0.004737	   -0.030647	   -0.021244	   -0.051891	   -0.009680	    0.000642	   -0.009038	    0.022182	   -0.003126	    0.019056	   -0.014205	   -0.017305	   -0.031510	    0.012953	   -0.016059	   -0.003106	   -0.062126	   -0.082836	   -0.144962	    0.060450	    0.016388	    0.076837	   -0.031483	   -0.028224	   -0.059707	   -0.014680	   -0.005596	   -0.020276	    0.076334	    0.050623	    0.126958	    0.056615	    0.020587	    0.077202	   -0.032399	   -0.024001	   -0.056400
     4.500	0	0	    0	    0.005624	    0.012761	    0.018385	   -0.000428	   -0.026547	   -0.026975	   -0.001869	   -0.012782	   -0.014651	   -0.014949	   -0.012612	   -0.027560	    0.008187	    0.003878	    0.012065	    0.006807	    0.016697	    0.023504	    0.016598	    0.009890	    0.026488	   -0.061954	   -0.084431	   -0.146385	   -0.027507	   -0.040082	   -0.067589	    0.015054	   -0.015556	   -0.000503	   -0.033879	   -0.020814	   -0.054694	   -0.011610	   -0.000453	   -0.012062	    0.012330	    0.013763	    0.026093	   -0.020648	   -0.013481	   -0.034129	    0.020133	   -0.022995	   -0.002862	   -0.066944	   -0.083756	   -0.150700	    0.059210	    0.016685	    0.075895	   -0.031526	   -0.027547	   -0.059073	   -0.015840	   -0.003191	   -0.019030	    0.064850	    0.061537	    0.126387	    0.039241	    0.033134	    0.072375	    0.010102	   -0.028568	   -0.018467
     4.575	0	0	    0	    0.007884	    0.009987	    0.017871	   -0.006321	   -0.021532	   -0.027853	   -0.004276	   -0.012381	   -0.016657	   -0.015151	   -0.009755	   -0.024906	    0.002935	    0.006692	    0.009627	    0.000197	    0.002854	    0.003051	    0.015368	    0.030301	    0.045669	   -0.059090	   -0.086575	   -0.145665	   -0.027639	   -0.040369	   -0.068008	    0.009526	   -0.016365	   -0.006840	   -0.036625	   -0.019059	   -0.055684	   -0.014447	   -0.000544	   -0.014991	    0.005035	    0.015274	    0.020309	   -0.023068	    0.003935	   -0.019133	    0.055226	    0.027544	    0.082770	   -0.070779	   -0.087395	   -0.158174	    0.057196	    0.015620	    0.072816	   -0.028540	   -0.025553	   -0.054093	   -0.013028	   -0.003267	   -0.016296	    0.060949	    0.059759	    0.120708	    0.033753	    0.026902	    0.060656	    0.070352	    0.019310	    0.089662
     4.650	0	0	    0	    0.005789	    0.008179	    0.013968	   -0.003184	   -0.019965	   -0.023149	   -0.014998	   -0.005258	   -0.020256	   -0.019569	   -0.004178	   -0.023748	   -0.005285	    0.009981	    0.004696	   -0.028866	    0.000467	   -0.028399	    0.003206	    0.023479	    0.026685	   -0.065236	   -0.087553	   -0.152789	   -0.032590	   -0.039279	   -0.071869	    0.003499	   -0.016907	   -0.013409	   -0.040154	   -0.016626	   -0.056779	   -0.017805	    0.000780	   -0.017024	   -0.010863	    0.009392	   -0.001470	   -0.032728	   -0.004989	   -0.037717	    0.046050	    0.017641	    0.063691	   -0.082155	   -0.089503	   -0.171658	    0.053486	    0.015430	    0.068915	   -0.027459	   -0.020784	   -0.048243	   -0.012218	    0.001009	   -0.011209	    0.059724	    0.056133	    0.115857	    0.034482	    0.023068	    0.057550	    0.103375	    0.067351	    0.170726
     4.725	0	0	    0	   -0.011361	    0.018717	    0.007356	   -0.003775	   -0.016881	   -0.020655	   -0.018070	   -0.005089	   -0.023159	   -0.026101	   -0.001979	   -0.028080	   -0.014361	    0.018159	    0.003797	   -0.043420	    0.004621	   -0.038800	    0.000985	    0.032156	    0.033141	   -0.071470	   -0.086014	   -0.157484	   -0.037255	   -0.041270	   -0.078526	    0.003084	   -0.020635	   -0.017551	   -0.042928	   -0.017017	   -0.059945	   -0.018148	    0.003104	   -0.015044	   -0.021136	    0.004941	   -0.016194	   -0.036845	   -0.004835	   -0.041681	    0.043289	    0.037036	    0.080325	   -0.089311	   -0.092258	   -0.181568	    0.050774	    0.013458	    0.064232	   -0.028494	   -0.020211	   -0.048705	   -0.012394	    0.002224	   -0.010170	    0.059924	    0.054141	    0.114065	    0.031588	    0.027195	    0.058783	    0.121354	    0.100853	    0.222206
     4.800	0	0	    0	   -0.010228	    0.017317	    0.007089	   -0.004305	   -0.014930	   -0.019234	   -0.018797	   -0.005277	   -0.024074	   -0.031873	    0.000312	   -0.031561	   -0.019303	    0.021115	    0.001813	   -0.045087	    0.003845	   -0.041243	   -0.014458	    0.039158	    0.024701	   -0.078423	   -0.080612	   -0.159035	   -0.041301	   -0.040759	   -0.082060	    0.000686	   -0.019703	   -0.019016	   -0.042380	   -0.015772	   -0.058152	   -0.018101	    0.004554	   -0.013547	   -0.024864	    0.001895	   -0.022968	   -0.044849	   -0.006340	   -0.051189	    0.010114	    0.047500	    0.057614	   -0.094407	   -0.091884	   -0.186291	    0.046827	    0.012908	    0.059735	   -0.029505	   -0.018865	   -0.048370	   -0.011754	    0.003267	   -0.008488	    0.055686	    0.054526	    0.110213	    0.024435	    0.027467	    0.051902	    0.057778	    0.123094	    0.180873
     4.875	0	0	    0	   -0.007772	    0.015403	    0.007631	   -0.006094	   -0.014631	   -0.020726	   -0.012455	   -0.012087	   -0.024542	   -0.030694	   -0.003728	   -0.034422	   -0.018061	    0.019135	    0.001074	   -0.025289	   -0.003938	   -0.029227	    0.021332	   -0.002807	    0.018525	   -0.078900	   -0.087650	   -0.166550	   -0.051338	   -0.036707	   -0.088045	    0.000908	   -0.023853	   -0.022945	   -0.040314	   -0.017434	   -0.057748	   -0.020593	    0.006902	   -0.013691	   -0.027320	   -0.003552	   -0.030872	   -0.036996	   -0.024905	   -0.061901	    0.048866	    0.005970	    0.054836	   -0.106476	   -0.098314	   -0.204790	    0.042847	    0.010868	    0.053715	   -0.030524	   -0.020427	   -0.050952	   -0.011334	    0.003070	   -0.008264	    0.052736	    0.049865	    0.102600	    0.007625	    0.015552	    0.023178	    0.021373	    0.036281	    0.057654
     4.950	0	0	    0	   -0.021654	    0.026326	    0.004672	   -0.011785	   -0.021436	   -0.033221	    0.003103	   -0.002764	    0.000339	   -0.036564	   -0.005986	   -0.042550	   -0.010835	    0.015347	    0.004512	   -0.028367	    0.009620	   -0.018747	    0.034720	    0.026372	    0.061092	   -0.091246	   -0.087776	   -0.179021	   -0.077771	   -0.050125	   -0.127896	   -0.003998	   -0.025407	   -0.029405	   -0.043648	   -0.017591	   -0.061240	   -0.024176	    0.005415	   -0.018760	   -0.028632	   -0.013647	   -0.042279	   -0.052690	   -0.018673	   -0.071364	   -0.014078	    0.014149	    0.000070	   -0.113693	   -0.101767	   -0.215460	    0.035079	    0.012769	    0.047848	   -0.021350	   -0.016013	   -0.037364	   -0.016103	   -0.000955	   -0.017058	    0.042652	    0.043890	    0.086543	    0.011692	   -0.010667	    0.001025	   -0.036230	   -0.008501	   -0.044731
     5.025	0	0	    0	    0.012265	    0.002136	    0.014400	   -0.004698	   -0.027955	   -0.032653	    0.006667	   -0.006811	   -0.000144	   -0.028798	   -0.021306	   -0.050103	   -0.001887	    0.014924	    0.013036	   -0.014006	    0.015778	    0.001772	    0.038838	    0.033939	    0.072777	   -0.081536	   -0.101479	   -0.183015	   -0.065172	   -0.069454	   -0.134625	    0.003865	   -0.036264	   -0.032399	   -0.034356	   -0.024480	   -0.058836	   -0.024031	   -0.011337	   -0.035368	   -0.016251	   -0.027830	   -0.044081	   -0.028533	   -0.034139	   -0.062672	    0.009658	   -0.019803	   -0.010145	   -0.093930	   -0.107821	   -0.201751	    0.040075	   -0.004767	    0.035308	   -0.016988	   -0.016455	   -0.033442	   -0.007708	   -0.003240	   -0.010948	    0.049271	    0.027650	    0.076921	    0.030295	   -0.006579	    0.023716	   -0.038239	   -0.025473	   -0.063711
     5.100	0	0	    0	    0.009385	    0.025152	    0.034538	    0.002717	   -0.027949	   -0.025232	    0.016676	   -0.002177	    0.014499	   -0.026930	   -0.015366	   -0.042295	    0.001905	    0.016887	    0.018792	    0.009780	    0.012118	    0.021898	    0.044581	    0.028814	    0.073395	   -0.065606	   -0.096300	   -0.161906	   -0.052740	   -0.061492	   -0.114231	    0.010769	   -0.033063	   -0.022293	   -0.029613	   -0.021834	   -0.051447	   -0.018256	   -0.012088	   -0.030344	   -0.005975	   -0.018057	   -0.024032	   -0.029303	   -0.025941	   -0.055244	    0.017574	   -0.018960	   -0.001386	   -0.075653	   -0.099756	   -0.175408	    0.051555	    0.003013	    0.054568	   -0.014382	   -0.018286	   -0.032668	   -0.003966	   -0.001277	   -0.005243	    0.064125	    0.028239	    0.092365	    0.033862	   -0.002143	    0.031719	   -0.013865	   -0.034738	   -0.048603
     5.175	0	0	    0	    0.026619	    0.006847	    0.033466	    0.000789	   -0.019992	   -0.019204	    0.020447	   -0.002505	    0.017942	   -0.020656	   -0.018805	   -0.039462	   -0.001459	    0.015607	    0.014148	   -0.000345	    0.018117	    0.017772	    0.050694	    0.028320	    0.079014	   -0.055328	   -0.086313	   -0.141641	   -0.035218	   -0.052709	   -0.087927	    0.014067	   -0.031168	   -0.017101	   -0.028749	   -0.018895	   -0.047645	   -0.014813	   -0.009316	   -0.024129	    0.001752	   -0.016143	   -0.014391	   -0.024293	   -0.009395	   -0.033688	    0.015137	    0.022982	    0.038119	   -0.059913	   -0.090201	   -0.150114	    0.058118	    0.006309	    0.064427	   -0.000889	   -0.023373	   -0.024262	   -0.004058	    0.001069	   -0.002989	    0.069951	    0.039825	    0.109776	    0.034536	   -0.000593	    0.033942	    0.023173	   -0.013874	    0.009299
     5.250	0	0	    0	    0.031385	    0.012710	    0.044096	   -0.014686	   -0.041191	   -0.055878	    0.044613	   -0.004402	    0.040211	   -0.024412	   -0.016318	   -0.040730	   -0.002147	    0.015204	    0.013057	   -0.006118	    0.021206	    0.015088	    0.108927	    0.063169	    0.172096	   -0.059676	   -0.094576	   -0.154252	   -0.108861	   -0.056668	   -0.165529	   -0.022964	   -0.043896	   -0.066860	   -0.029497	   -0.037698	   -0.067196	   -0.038733	   -0.009747	   -0.048480	   -0.037637	   -0.012071	   -0.049707	   -0.006891	   -0.003921	   -0.010812	    0.015695	    0.060322	    0.076017	   -0.091980	   -0.094702	   -0.186682	    0.037445	    0.012461	    0.049906	   -0.005336	   -0.017968	   -0.023305	   -0.010657	   -0.021721	   -0.032378	    0.033947	    0.046021	    0.079968	    0.032933	   -0.001312	    0.031621	    0.011754	    0.007635	    0.019390
     5.325	0	0	    0	    0.027524	    0.057101	    0.084625	    0.000321	   -0.034830	   -0.034509	    0.061769	    0.028873	    0.090643	    0.014485	   -0.012580	    0.001905	   -0.067193	   -0.045612	   -0.112805	   -0.015701	   -0.043513	   -0.059214	    0.163022	    0.095955	    0.258976	   -0.038417	   -0.072468	   -0.110886	   -0.131714	   -0.114354	   -0.246069	   -0.038496	   -0.094303	   -0.132798	    0.013578	   -0.007419	    0.006158	   -0.054871	   -0.054786	   -0.109657	   -0.071535	   -0.095191	   -0.166726	    0.034270	    0.025154	    0.059424	    0.035176	    0.071169	    0.106345	   -0.075547	   -0.104851	   -0.180398	   -0.020890	   -0.057765	   -0.078655	    0.009220	   -0.040192	   -0.030972	    0.022078	   -0.043239	   -0.021161	   -0.014489	   -0.015355	   -0.029844	    0.066662	    0.023984	    0.090646	    0.056961	    0.012351	    0.069312
     5.400	0	0	    0	    0.045558	    0.067547	    0.113106	    0.001588	   -0.026309	   -0.024721	    0.078739	    0.034819	    0.113559	    0.041263	    0.032157	    0.073420	   -0.050613	   -0.097170	   -0.147783	   -0.007418	   -0.061561	   -0.068979	    0.185653	    0.101620	    0.287273	   -0.016456	   -0.036085	   -0.052542	   -0.129424	   -0.112367	   -0.241791	   -0.038071	   -0.108420	   -0.146491	    0.018207	    0.014408	    0.032615	   -0.044394	   -0.064014	   -0.108408	   -0.072259	   -0.126728	   -0.198987	    0.068020	    0.047332	    0.115352	    0.047229	    0.079375	    0.126605	   -0.071692	   -0.077221	   -0.148912	   -0.030442	   -0.089986	   -0.120428	    0.007716	   -0.048501	   -0.040784	    0.031642	   -0.039696	   -0.008054	    0.002585	   -0.044581	   -0.041996	    0.064806	    0.047956	    0.112762	    0.064369	    0.061067	    0.125435
     5.475	0	0	    0	    0.044171	    0.070492	    0.114663	   -0.005795	   -0.029911	   -0.035705	    0.070912	    0.039702	    0.110614	    0.036995	    0.050012	    0.087008	   -0.049976	   -0.089588	   -0.139563	   -0.001826	   -0.062838	   -0.064664	    0.145752	    0.124529	    0.270281	   -0.019156	   -0.020407	   -0.039563	   -0.121268	   -0.112257	   -0.233525	   -0.026118	   -0.112796	   -0.138914	   -0.011334	    0.015578	    0.004245	   -0.038103	   -0.059249	   -0.097352	   -0.054549	   -0.133420	   -0.187969	    0.053252	    0.066032	    0.119284	   -0.004666	    0.092331	    0.087665	   -0.069997	   -0.073394	   -0.143391	   -0.028724	   -0.103464	   -0.132188	   -0.013557	   -0.050540	   -0.064097	    0.006450	   -0.034651	   -0.028201	    0.002109	   -0.040220	   -0.038110	    0.058330	    0.043050	    0.101380	    0.036282	    0.070788	    0.107070
     5.550	0	0	    0	    0.022086	    0.048891	    0.070977	   -0.012718	   -0.044442	   -0.057160	    0.027481	    0.014416	    0.041897	   -0.002348	    0.019732	    0.017384	   -0.009013	   -0.072365	   -0.081379	    0.007047	   -0.033672	   -0.026625	    0.079704	    0.092883	    0.172587	   -0.040521	   -0.037393	   -0.077914	   -0.102486	   -0.108938	   -0.211423	   -0.026267	   -0.102792	   -0.129059	   -0.039633	   -0.024764	   -0.064397	   -0.029104	   -0.052807	   -0.081911	   -0.010675	   -0.100927	   -0.111602	    0.015366	    0.026726	    0.042091	    0.022380	   -0.010548	    0.011832	   -0.072852	   -0.076669	   -0.149521	   -0.016439	   -0.091518	   -0.107957	   -0.053623	   -0.065548	   -0.119170	   -0.020356	   -0.033988	   -0.054344	    0.013474	   -0.029689	   -0.016215	    0.053505	    0.041209	    0.094714	   -0.026230	    0.013656	   -0.012573
     5.625	0	0	    0	   -0.009179	    0.046436	    0.037257	   -0.005865	   -0.037242	   -0.043107	    0.006223	   -0.001649	    0.004575	   -0.016466	   -0.007059	   -0.023525	   -0.005647	   -0.038976	   -0.044623	    0.003493	   -0.001142	    0.002351	    0.020760	    0.062162	    0.082922	   -0.060113	   -0.056526	   -0.116639	   -0.051234	   -0.076861	   -0.128094	   -0.018189	   -0.085540	   -0.103730	   -0.036485	   -0.026523	   -0.063008	   -0.023103	   -0.038624	   -0.061726	    0.016639	   -0.044184	   -0.027546	    0.016814	    0.009715	    0.026529	    0.000954	   -0.001842	   -0.000888	   -0.043002	   -0.065703	   -0.108705	   -0.011100	   -0.068825	   -0.079925	   -0.055859	   -0.065685	   -0.121544	   -0.019506	   -0.022806	   -0.042312	    0.021185	    0.005949	    0.027134	    0.059660	    0.046157	    0.105817	   -0.030546	   -0.014776	   -0.045321
     5.700	0	0	    0	    0.001987	    0.031090	    0.033077	   -0.016569	   -0.041629	   -0.058198	    0.030241	   -0.009093	    0.021148	   -0.016710	   -0.012969	   -0.029679	    0.002517	   -0.015362	   -0.012844	   -0.002956	    0.005179	    0.002223	    0.063686	    0.017557	    0.081243	   -0.062235	   -0.066745	   -0.128980	   -0.085923	   -0.051567	   -0.137489	   -0.031303	   -0.078049	   -0.109351	   -0.042353	   -0.030938	   -0.073291	   -0.029395	   -0.019967	   -0.049362	   -0.010861	   -0.008430	   -0.019290	    0.010607	    0.005751	    0.016358	    0.021938	   -0.019391	    0.002547	   -0.057440	   -0.059098	   -0.116539	   -0.011202	   -0.056393	   -0.067596	   -0.029934	   -0.061885	   -0.091819	   -0.026240	   -0.034981	   -0.061221	    0.010324	    0.025888	    0.036212	    0.039944	    0.049563	    0.089507	   -0.011533	   -0.026838	   -0.038371
     5.775	0	0	    0	    0.033107	    0.010467	    0.043574	   -0.010477	   -0.040831	   -0.051308	    0.050134	    0.016243	    0.066376	   -0.003788	   -0.018850	   -0.022638	   -0.036606	   -0.035078	   -0.071684	   -0.013481	   -0.015697	   -0.029179	    0.115486	    0.081260	    0.196745	   -0.043160	   -0.072105	   -0.115265	   -0.114123	   -0.090146	   -0.204269	   -0.032266	   -0.092237	   -0.124503	   -0.023682	   -0.029849	   -0.053531	   -0.048031	   -0.048633	   -0.096664	   -0.051234	   -0.070691	   -0.121925	    0.029770	    0.018781	    0.048551	    0.052883	    0.025084	    0.077967	   -0.060710	   -0.075017	   -0.135727	   -0.026175	   -0.072843	   -0.099018	   -0.015160	   -0.052452	   -0.067613	   -0.015564	   -0.045930	   -0.061494	   -0.015857	   -0.018437	   -0.034294	    0.044130	    0.025708	    0.069837	    0.053540	    0.007617	    0.061156
     5.850	0	0	    0	   -0.001776	    0.054570	    0.052794	   -0.012055	   -0.038268	   -0.050323	    0.048928	    0.036584	    0.085512	    0.003266	   -0.004566	   -0.001300	   -0.049636	   -0.067419	   -0.117055	   -0.029286	   -0.023036	   -0.052321	    0.095452	    0.130534	    0.225986	   -0.041261	   -0.053112	   -0.094373	   -0.131476	   -0.095339	   -0.226815	   -0.047895	   -0.094001	   -0.141896	   -0.003223	   -0.019973	   -0.023196	   -0.049124	   -0.061737	   -0.110860	   -0.079149	   -0.099276	   -0.178424	    0.040260	    0.042881	    0.083141	    0.088879	    0.050719	    0.139598	   -0.066179	   -0.071377	   -0.137556	   -0.033608	   -0.081597	   -0.115205	   -0.005125	   -0.050546	   -0.055671	    0.005858	   -0.051824	   -0.045966	   -0.015432	   -0.035882	   -0.051314	    0.039319	    0.030204	    0.069523	    0.082770	    0.057668	    0.140437
     5.925	0	0	    0	    0.044016	    0.033708	    0.077724	   -0.002830	   -0.035872	   -0.038703	    0.081876	    0.030923	    0.112798	    0.033007	    0.012259	    0.045265	   -0.076221	   -0.099807	   -0.176028	   -0.043249	   -0.066942	   -0.110191	    0.147253	    0.121233	    0.268486	   -0.021164	   -0.049066	   -0.070230	   -0.136381	   -0.120993	   -0.257374	   -0.045316	   -0.121595	   -0.166911	    0.017044	    0.007727	    0.024771	   -0.044817	   -0.065919	   -0.110736	   -0.114018	   -0.151740	   -0.265758	    0.061542	    0.052946	    0.114487	    0.081355	    0.046801	    0.128156	   -0.064052	   -0.074612	   -0.138664	   -0.042865	   -0.103449	   -0.146314	   -0.005496	   -0.052953	   -0.058448	    0.021635	   -0.046601	   -0.024966	   -0.012933	   -0.047246	   -0.060180	    0.037186	    0.029546	    0.066732	    0.086847	    0.114151	    0.200998
     6.000	0	0	    0	    0.038188	    0.059246	    0.097434	    0.005135	   -0.033472	   -0.028337	    0.082026	    0.052574	    0.134600	    0.041872	    0.045304	    0.087176	   -0.064418	   -0.109525	   -0.173942	   -0.038240	   -0.071263	   -0.109502	    0.145122	    0.137688	    0.282809	   -0.016051	   -0.030152	   -0.046203	   -0.144903	   -0.119003	   -0.263906	   -0.045425	   -0.120940	   -0.166364	    0.015118	    0.020042	    0.035160	   -0.040987	   -0.063298	   -0.104285	   -0.114881	   -0.166378	   -0.281260	    0.063240	    0.058506	    0.121746	    0.094034	    0.041464	    0.135498	   -0.071726	   -0.068061	   -0.139786	   -0.051867	   -0.111595	   -0.163462	   -0.010666	   -0.058384	   -0.069050	    0.018771	   -0.041289	   -0.022518	   -0.016997	   -0.047466	   -0.064463	    0.029795	    0.027796	    0.057591	    0.076296	    0.088981	    0.165278
     6.075	0	0	    0	    0.037540	    0.069466	    0.107006	   -0.004119	   -0.035516	   -0.039636	    0.056564	    0.046119	    0.102683	    0.028049	    0.050646	    0.078695	   -0.048856	   -0.105708	   -0.154564	   -0.006973	   -0.074433	   -0.081406	    0.141424	    0.130549	    0.271973	   -0.020299	   -0.029465	   -0.049763	   -0.128070	   -0.117141	   -0.245211	   -0.037234	   -0.119117	   -0.156351	   -0.034358	   -0.002559	   -0.036917	   -0.035295	   -0.061519	   -0.096813	   -0.077371	   -0.165100	   -0.242470	    0.043206	    0.074231	    0.117437	    0.005382	    0.065893	    0.071275	   -0.074025	   -0.067813	   -0.141838	   -0.048352	   -0.117655	   -0.166007	   -0.046006	   -0.057916	   -0.103921	   -0.011337	   -0.037806	   -0.049143	   -0.020656	   -0.052270	   -0.072925	    0.045493	    0.021747	    0.067239	    0.031322	    0.059865	    0.091186
     6.150	0	0	    0	   -0.017452	    0.044211	    0.026759	    0.002460	   -0.038311	   -0.035850	    0.030812	    0.005278	    0.036090	   -0.009166	    0.005802	   -0.003364	   -0.036795	   -0.082021	   -0.118815	   -0.018534	   -0.049008	   -0.067543	    0.056935	    0.072644	    0.129579	   -0.045460	   -0.045463	   -0.090923	   -0.074720	   -0.099314	   -0.174034	   -0.027228	   -0.109674	   -0.136903	   -0.038758	   -0.032451	   -0.071210	   -0.030587	   -0.049902	   -0.080489	   -0.042494	   -0.120726	   -0.163220	    0.035036	    0.021590	    0.056626	    0.030075	   -0.010585	    0.019490	   -0.052294	   -0.068545	   -0.120839	   -0.023665	   -0.097306	   -0.120971	   -0.058360	   -0.071779	   -0.130140	   -0.015910	   -0.036499	   -0.052408	    0.007208	   -0.019569	   -0.012361	    0.045443	    0.028988	    0.074431	   -0.017170	    0.005746	   -0.011423
     6.225	0	0	    0	    0.012938	    0.005792	    0.018731	   -0.005015	   -0.036875	   -0.041891	    0.040320	   -0.001567	    0.038753	   -0.008717	   -0.008798	   -0.017515	   -0.022579	   -0.072261	   -0.094840	   -0.004214	   -0.040539	   -0.044753	    0.096377	    0.028243	    0.124620	   -0.052731	   -0.071158	   -0.123889	   -0.079830	   -0.069315	   -0.149145	   -0.027393	   -0.101029	   -0.128421	   -0.037923	   -0.033556	   -0.071479	   -0.027751	   -0.037558	   -0.065309	   -0.039643	   -0.070472	   -0.110114	    0.027094	    0.025490	    0.052584	    0.024702	   -0.006433	    0.018269	   -0.049858	   -0.062362	   -0.112220	   -0.016008	   -0.082423	   -0.098431	   -0.041883	   -0.072801	   -0.114685	   -0.026061	   -0.040236	   -0.066297	    0.007699	   -0.000962	    0.006736	    0.046406	    0.044322	    0.090728	   -0.009071	   -0.013953	   -0.023024
     6.300	0	0	    0	    0.009385	    0.025152	    0.034538	   -0.002975	   -0.043081	   -0.046056	    0.048901	    0.003012	    0.051913	   -0.005016	   -0.009016	   -0.014033	   -0.062954	   -0.047367	   -0.110321	   -0.017152	   -0.045220	   -0.062372	    0.142606	    0.052835	    0.195440	   -0.056493	   -0.060538	   -0.117031	   -0.092105	   -0.084649	   -0.176754	   -0.024887	   -0.103090	   -0.127978	   -0.027156	   -0.028486	   -0.055642	   -0.043544	   -0.051292	   -0.094836	   -0.076731	   -0.096403	   -0.173134	    0.045660	    0.029921	    0.075582	    0.026123	    0.021002	    0.047125	   -0.052312	   -0.064416	   -0.116728	   -0.011290	   -0.079965	   -0.091255	   -0.030109	   -0.061817	   -0.091926	   -0.013511	   -0.049908	   -0.063419	   -0.010199	   -0.019146	   -0.029345	    0.048671	    0.029493	    0.078164	    0.041734	    0.029367	    0.071101
     6.375	0	0	    0	   -0.000666	    0.027580	    0.026914	   -0.001006	   -0.037947	   -0.038952	    0.030743	    0.015396	    0.046138	   -0.003820	   -0.002458	   -0.006278	   -0.067370	   -0.105200	   -0.172570	   -0.026066	   -0.068166	   -0.094232	    0.117039	    0.087836	    0.204875	   -0.050208	   -0.061578	   -0.111786	   -0.069211	   -0.083456	   -0.152667	   -0.023638	   -0.096342	   -0.119980	   -0.033962	   -0.023839	   -0.057802	   -0.038599	   -0.065083	   -0.103682	   -0.074863	   -0.144094	   -0.218957	    0.046771	    0.050383	    0.097154	    0.040783	    0.063121	    0.103904	   -0.037952	   -0.061755	   -0.099707	   -0.010024	   -0.074172	   -0.084196	   -0.032598	   -0.057162	   -0.089760	   -0.022316	   -0.049280	   -0.071597	   -0.001945	   -0.041011	   -0.042956	    0.052851	    0.028162	    0.081013	    0.083036	    0.062280	    0.145316
     6.450	0	0	    0	   -0.007777	    0.019743	    0.011966	   -0.007310	   -0.029694	   -0.037003	    0.020056	    0.010873	    0.030929	   -0.011817	   -0.003848	   -0.015665	   -0.071879	   -0.105850	   -0.177728	   -0.032488	   -0.075126	   -0.107613	    0.099570	    0.087515	    0.187086	   -0.056984	   -0.058967	   -0.115950	   -0.055004	   -0.052960	   -0.107964	   -0.028640	   -0.089288	   -0.117928	   -0.036493	   -0.028523	   -0.065015	   -0.035138	   -0.056831	   -0.091969	   -0.077576	   -0.144338	   -0.221915	    0.044581	    0.047076	    0.091657	    0.080618	    0.031505	    0.112123	   -0.033131	   -0.050811	   -0.083942	   -0.009393	   -0.069744	   -0.079137	   -0.028476	   -0.055664	   -0.084140	   -0.026765	   -0.052498	   -0.079262	    0.004132	   -0.033463	   -0.029332	    0.049145	    0.028656	    0.077801	    0.131085	    0.090676	    0.221760
     6.525	0	0	    0	   -0.005874	    0.016344	    0.010470	   -0.014646	   -0.042056	   -0.056702	    0.037795	    0.006599	    0.044394	   -0.009892	   -0.006591	   -0.016483	   -0.071959	   -0.107208	   -0.179167	   -0.028085	   -0.081986	   -0.110072	    0.139372	    0.080115	    0.219487	   -0.055077	   -0.069983	   -0.125059	   -0.095535	   -0.064139	   -0.159674	   -0.033551	   -0.095983	   -0.129534	   -0.028538	   -0.030733	   -0.059272	   -0.042101	   -0.054244	   -0.096345	   -0.086648	   -0.149761	   -0.236408	    0.051285	    0.042686	    0.093970	    0.084885	    0.041289	    0.126175	   -0.050015	   -0.054349	   -0.104364	   -0.009463	   -0.065417	   -0.074880	   -0.019419	   -0.053233	   -0.072652	   -0.014494	   -0.056172	   -0.070666	   -0.000209	   -0.028211	   -0.028420	    0.045751	    0.030174	    0.075925	    0.130946	    0.126756	    0.257702
     6.600	0	0	    0	   -0.019750	    0.033894	    0.014144	   -0.009368	   -0.043410	   -0.052779	    0.061470	    0.011021	    0.072491	   -0.001572	   -0.004691	   -0.006263	   -0.078751	   -0.112201	   -0.190952	   -0.031252	   -0.081147	   -0.112399	    0.156133	    0.093478	    0.249611	   -0.054419	   -0.062518	   -0.116936	   -0.132128	   -0.089615	   -0.221743	   -0.040536	   -0.105951	   -0.146486	   -0.008343	   -0.021614	   -0.029956	   -0.046103	   -0.067500	   -0.113604	   -0.105847	   -0.159289	   -0.265136	    0.056574	    0.048136	    0.104710	    0.089206	    0.042868	    0.132074	   -0.059935	   -0.062532	   -0.122466	   -0.024183	   -0.075575	   -0.099758	   -0.010656	   -0.053547	   -0.064203	    0.000765	   -0.056420	   -0.055655	   -0.012451	   -0.039696	   -0.052147	    0.043947	    0.032729	    0.076676	    0.137548	    0.126112	    0.263660
     6.675	0	0	    0	    0.027953	    0.015803	    0.043756	   -0.005736	   -0.032891	   -0.038627	    0.060119	    0.037449	    0.097568	    0.016826	    0.009082	    0.025908	   -0.072471	   -0.127893	   -0.200364	   -0.041324	   -0.073099	   -0.114423	    0.102178	    0.152745	    0.254923	   -0.044195	   -0.055506	   -0.099701	   -0.137112	   -0.110968	   -0.248080	   -0.048532	   -0.113153	   -0.161685	    0.009774	   -0.006869	    0.002904	   -0.042709	   -0.071979	   -0.114687	   -0.107553	   -0.174742	   -0.282295	    0.053558	    0.059380	    0.112938	    0.102323	    0.032287	    0.134611	   -0.055526	   -0.067244	   -0.122770	   -0.029915	   -0.095170	   -0.125085	   -0.007703	   -0.057718	   -0.065420	    0.012932	   -0.053157	   -0.040225	   -0.016445	   -0.044999	   -0.061444	    0.044940	    0.033263	    0.078203	    0.087881	    0.105840	    0.193721
     6.750	0	0	    0	    0.031235	    0.048645	    0.079880	   -0.000696	   -0.031483	   -0.032179	    0.082512	    0.027188	    0.109700	    0.028349	    0.027311	    0.055660	   -0.066175	   -0.119955	   -0.186130	   -0.031165	   -0.071691	   -0.102856	    0.129921	    0.125194	    0.255115	   -0.032879	   -0.045418	   -0.078298	   -0.141175	   -0.112916	   -0.254092	   -0.040325	   -0.125385	   -0.165709	    0.009534	    0.005879	    0.015412	   -0.037398	   -0.068594	   -0.105992	   -0.103318	   -0.173845	   -0.277163	    0.036482	    0.061547	    0.098029	    0.008698	    0.076656	    0.085354	   -0.057183	   -0.059474	   -0.116657	   -0.034072	   -0.102526	   -0.136598	   -0.011085	   -0.060936	   -0.072021	    0.008214	   -0.048283	   -0.040069	   -0.015983	   -0.043676	   -0.059660	    0.051218	    0.033896	    0.085114	    0.044553	    0.058016	    0.102569
     6.825	0	0	    0	    0.034223	    0.047483	    0.081706	   -0.009051	   -0.037750	   -0.046801	    0.046499	    0.034159	    0.080658	    0.017659	    0.029432	    0.047092	   -0.053819	   -0.110255	   -0.164074	   -0.025035	   -0.064777	   -0.089813	    0.098660	    0.107354	    0.206014	   -0.032679	   -0.049058	   -0.081736	   -0.120438	   -0.108818	   -0.229256	   -0.028967	   -0.118786	   -0.147753	   -0.023672	   -0.007802	   -0.031474	   -0.032419	   -0.064398	   -0.096816	   -0.084095	   -0.164400	   -0.248495	    0.035556	    0.043252	    0.078807	    0.028301	    0.022373	    0.050674	   -0.064278	   -0.058752	   -0.123030	   -0.027197	   -0.099245	   -0.126441	   -0.047263	   -0.059377	   -0.106641	   -0.018254	   -0.044748	   -0.063002	   -0.013987	   -0.039186	   -0.053173	    0.042784	    0.038705	    0.081489	    0.008958	    0.042582	    0.051540
     6.900	0	0	    0	    0.007227	    0.029538	    0.036766	   -0.010739	   -0.038285	   -0.049024	    0.024706	    0.001433	    0.026140	   -0.007552	    0.000729	   -0.006823	   -0.046456	   -0.099613	   -0.146069	   -0.013390	   -0.060268	   -0.073658	    0.077911	    0.064547	    0.142457	   -0.055839	   -0.062194	   -0.118033	   -0.085835	   -0.077202	   -0.163037	   -0.032677	   -0.105412	   -0.138089	   -0.034191	   -0.025627	   -0.059817	   -0.033938	   -0.053013	   -0.086951	   -0.052731	   -0.124665	   -0.177396	    0.019989	    0.037278	    0.057267	    0.029224	    0.009863	    0.039087	   -0.051965	   -0.050568	   -0.102533	   -0.029647	   -0.083457	   -0.113104	   -0.060263	   -0.075686	   -0.135949	   -0.036207	   -0.044757	   -0.080964	   -0.011445	   -0.013249	   -0.024694	    0.039127	    0.037948	    0.077075	    0.023228	    0.020576	    0.043804
     6.975	0	0	    0	   -0.007198	    0.025640	    0.018442	   -0.022937	   -0.039215	   -0.062153	    0.024324	   -0.003736	    0.020588	   -0.013388	   -0.005693	   -0.019081	   -0.044624	   -0.073402	   -0.118025	   -0.025062	   -0.036037	   -0.061099	    0.079182	    0.051401	    0.130583	   -0.065783	   -0.067671	   -0.133454	   -0.085997	   -0.062211	   -0.148208	   -0.037358	   -0.101874	   -0.139233	   -0.032974	   -0.029421	   -0.062395	   -0.041815	   -0.045290	   -0.087104	   -0.064323	   -0.082860	   -0.147183	    0.009095	    0.046717	    0.055812	    0.039463	    0.027673	    0.067136	   -0.051451	   -0.046144	   -0.097596	   -0.034711	   -0.079688	   -0.114399	   -0.055128	   -0.076171	   -0.131299	   -0.042746	   -0.052181	   -0.094927	   -0.010437	   -0.004848	   -0.015285	    0.029201	    0.043165	    0.072366	    0.062088	    0.025529	    0.087616
     7.050	0	0	    0	    0.013825	    0.011469	    0.025294	   -0.024650	   -0.043328	   -0.067978	    0.025731	   -0.000652	    0.025079	   -0.009593	   -0.008581	   -0.018173	   -0.047963	   -0.072142	   -0.120105	   -0.025182	   -0.042874	   -0.068056	    0.089318	    0.061122	    0.150440	   -0.061518	   -0.075163	   -0.136681	   -0.096970	   -0.067979	   -0.164948	   -0.041324	   -0.105523	   -0.146846	   -0.025093	   -0.028408	   -0.053501	   -0.049532	   -0.053702	   -0.103234	   -0.072773	   -0.097851	   -0.170625	    0.025209	    0.046285	    0.071494	    0.090484	    0.028687	    0.119172	   -0.050660	   -0.051749	   -0.102409	   -0.035732	   -0.079844	   -0.115576	   -0.045670	   -0.073700	   -0.119370	   -0.037299	   -0.058895	   -0.096194	   -0.011086	   -0.012930	   -0.024017	    0.020767	    0.027941	    0.048708	    0.090303	    0.065145	    0.155448
     7.125	0	0	    0	    0.000475	    0.009306	    0.009782	   -0.024285	   -0.049356	   -0.073641	    0.035929	    0.004338	    0.040267	   -0.010534	   -0.007397	   -0.017931	   -0.061309	   -0.074652	   -0.135961	   -0.031809	   -0.048278	   -0.080087	    0.102793	    0.074680	    0.177474	   -0.060788	   -0.076369	   -0.137157	   -0.118046	   -0.078006	   -0.196052	   -0.041291	   -0.110142	   -0.151433	   -0.013653	   -0.023407	   -0.037060	   -0.054387	   -0.059699	   -0.114086	   -0.093732	   -0.111061	   -0.204793	    0.032220	    0.043079	    0.075299	    0.081518	    0.040539	    0.122057	   -0.057846	   -0.053582	   -0.111428	   -0.034828	   -0.081494	   -0.116323	   -0.030089	   -0.069122	   -0.099210	   -0.021347	   -0.061096	   -0.082443	   -0.014644	   -0.018763	   -0.033406	    0.024314	    0.022418	    0.046732	    0.115196	    0.093005	    0.208200
     7.200	0	0	    0	    0.005886	    0.015859	    0.021745	   -0.018679	   -0.044883	   -0.063562	    0.052385	    0.010386	    0.062772	   -0.003088	   -0.005940	   -0.009028	   -0.058177	   -0.094870	   -0.153047	   -0.035039	   -0.053577	   -0.088616	    0.106094	    0.110880	    0.216974	   -0.049349	   -0.074495	   -0.123844	   -0.120112	   -0.091645	   -0.211757	   -0.035366	   -0.108147	   -0.143512	    0.001528	   -0.018819	   -0.017290	   -0.051415	   -0.068226	   -0.119641	   -0.099589	   -0.133625	   -0.233214	    0.043388	    0.047872	    0.091260	    0.083875	    0.037194	    0.121069	   -0.049695	   -0.058394	   -0.108089	   -0.019894	   -0.084460	   -0.104354	   -0.016729	   -0.064434	   -0.081163	   -0.001686	   -0.059607	   -0.061293	   -0.013107	   -0.024823	   -0.037929	    0.036483	    0.026084	    0.062567	    0.099361	    0.105478	    0.204840
     7.275	0	0	    0	   -0.004908	    0.036315	    0.031407	   -0.005925	   -0.039389	   -0.045314	    0.076331	    0.021067	    0.097398	    0.014001	    0.005272	    0.019273	   -0.067951	   -0.101568	   -0.169520	   -0.024658	   -0.065829	   -0.090487	    0.132461	    0.108227	    0.240688	   -0.050383	   -0.064833	   -0.115216	   -0.134888	   -0.101011	   -0.235899	   -0.035771	   -0.115115	   -0.150886	    0.008772	   -0.003529	    0.005243	   -0.049829	   -0.073783	   -0.123612	   -0.101817	   -0.156150	   -0.257967	    0.049545	    0.065330	    0.114874	    0.008602	    0.103136	    0.111737	   -0.047183	   -0.059533	   -0.106717	   -0.025797	   -0.084562	   -0.110358	   -0.009756	   -0.060093	   -0.069849	    0.009167	   -0.051976	   -0.042809	   -0.015771	   -0.041349	   -0.057120	    0.053190	    0.028324	    0.081513	    0.060773	    0.067159	    0.127932
     7.350	0	0	    0	    0.007613	    0.046362	    0.053976	   -0.003623	   -0.034069	   -0.037693	    0.062211	    0.034856	    0.097067	    0.021289	    0.017013	    0.038303	   -0.054649	   -0.108323	   -0.162971	   -0.027094	   -0.060909	   -0.088003	    0.103801	    0.118056	    0.221858	   -0.042185	   -0.056136	   -0.098321	   -0.113382	   -0.108799	   -0.222181	   -0.022438	   -0.112745	   -0.135184	   -0.012699	   -0.005581	   -0.018279	   -0.036477	   -0.071616	   -0.108094	   -0.087636	   -0.160847	   -0.248483	    0.047723	    0.056728	    0.104451	    0.018587	    0.047396	    0.065984	   -0.041390	   -0.053347	   -0.094736	   -0.019917	   -0.093183	   -0.113100	   -0.027529	   -0.055639	   -0.083168	   -0.005749	   -0.044594	   -0.050343	   -0.010793	   -0.043256	   -0.054049	    0.061619	    0.036806	    0.098425	    0.028431	    0.050953	    0.079385
     7.425	0	0	    0	    0.009611	    0.036619	    0.046230	   -0.001174	   -0.033373	   -0.034547	    0.048324	    0.014985	    0.063309	    0.004418	    0.006947	    0.011365	   -0.053889	   -0.104768	   -0.158657	   -0.018832	   -0.066479	   -0.085310	    0.089512	    0.073131	    0.162644	   -0.046628	   -0.056917	   -0.103545	   -0.094003	   -0.083362	   -0.177365	   -0.020677	   -0.105414	   -0.126092	   -0.022167	   -0.024519	   -0.046686	   -0.027591	   -0.058823	   -0.086414	   -0.064253	   -0.146733	   -0.210986	    0.035823	    0.044891	    0.080714	    0.034019	    0.012453	    0.046472	   -0.039495	   -0.049914	   -0.089409	   -0.018731	   -0.083963	   -0.102694	   -0.043691	   -0.068492	   -0.112183	   -0.019885	   -0.044785	   -0.064670	    0.001332	   -0.028962	   -0.027630	    0.051380	    0.036136	    0.087516	    0.017128	    0.034413	    0.051541
     7.500	0	0	    0	    0.005285	    0.036220	    0.041505	   -0.000086	   -0.036813	   -0.036899	    0.065177	   -0.002001	    0.063176	    0.004210	   -0.002534	    0.001677	   -0.054394	   -0.097155	   -0.151549	   -0.017230	   -0.069098	   -0.086329	    0.118255	    0.050520	    0.168776	   -0.051795	   -0.062420	   -0.114215	   -0.099816	   -0.075578	   -0.175394	   -0.023131	   -0.105156	   -0.128287	   -0.019928	   -0.023719	   -0.043647	   -0.033195	   -0.050749	   -0.083943	   -0.070836	   -0.130800	   -0.201636	    0.043487	    0.033038	    0.076524	    0.032056	    0.005422	    0.037478	   -0.040615	   -0.049623	   -0.090238	   -0.020498	   -0.081617	   -0.102115	   -0.040663	   -0.068907	   -0.109569	   -0.018100	   -0.046376	   -0.064477	   -0.011076	   -0.016135	   -0.027212	    0.045017	    0.032868	    0.077884	    0.033300	    0.015613	    0.048913
     7.575	0	0	    0	    0.023159	    0.031601	    0.054760	   -0.001957	   -0.033859	   -0.035815	    0.063363	    0.012254	    0.075618	    0.010351	    0.000406	    0.010756	   -0.059786	   -0.096738	   -0.156523	   -0.009998	   -0.078193	   -0.088191	    0.133613	    0.052044	    0.185658	   -0.046642	   -0.061350	   -0.107993	   -0.106198	   -0.085997	   -0.192196	   -0.023310	   -0.106753	   -0.130063	   -0.017940	   -0.022975	   -0.040915	   -0.037792	   -0.051790	   -0.089581	   -0.077145	   -0.138039	   -0.215183	    0.048380	    0.033967	    0.082347	    0.026083	    0.009780	    0.035863	   -0.042451	   -0.051372	   -0.093823	   -0.019453	   -0.086637	   -0.106091	   -0.040840	   -0.065313	   -0.106154	   -0.015919	   -0.045817	   -0.061736	   -0.019317	   -0.030711	   -0.050029	    0.050528	    0.025648	    0.076176	    0.018952	    0.029266	    0.048218
     7.650	0	0	    0	    0.009164	    0.027782	    0.036946	   -0.006539	   -0.032486	   -0.039026	    0.057605	    0.013167	    0.070772	    0.011252	    0.002736	    0.013988	   -0.061473	   -0.099995	   -0.161468	   -0.025997	   -0.064841	   -0.090838	    0.090669	    0.078348	    0.169017	   -0.045579	   -0.059514	   -0.105093	   -0.101362	   -0.086987	   -0.188350	   -0.026320	   -0.105497	   -0.131817	   -0.017186	   -0.020563	   -0.037749	   -0.034009	   -0.054911	   -0.088920	   -0.073407	   -0.137980	   -0.211387	    0.038464	    0.040153	    0.078617	    0.023418	   -0.003180	    0.020238	   -0.046020	   -0.048051	   -0.094071	   -0.023033	   -0.084781	   -0.107814	   -0.043653	   -0.065966	   -0.109618	   -0.016293	   -0.041991	   -0.058283	   -0.020806	   -0.032002	   -0.052808	    0.052616	    0.033586	    0.086202	    0.000029	    0.021460	    0.021490
     7.725	0	0	    0	    0.017973	    0.033367	    0.051340	    0.000352	   -0.035479	   -0.035127	    0.065581	    0.016332	    0.081913	    0.014969	    0.005821	    0.020791	   -0.059899	   -0.106683	   -0.166582	   -0.020885	   -0.069917	   -0.090802	    0.122811	    0.049743	    0.172554	   -0.045612	   -0.054031	   -0.099643	   -0.108758	   -0.084815	   -0.193573	   -0.030295	   -0.108165	   -0.138460	   -0.016674	   -0.019575	   -0.036249	   -0.035475	   -0.051300	   -0.086776	   -0.078565	   -0.136897	   -0.215462	    0.046901	    0.034013	    0.080914	    0.029743	   -0.010397	    0.019346	   -0.050494	   -0.048840	   -0.099333	   -0.028875	   -0.087732	   -0.116607	   -0.039677	   -0.065711	   -0.105388	   -0.017179	   -0.041177	   -0.058357	   -0.027993	   -0.030644	   -0.058637	    0.053181	    0.031753	    0.084934	    0.019239	    0.007454	    0.026693
     7.800	0	0	    0	    0.011998	    0.046822	    0.058820	    0.000878	   -0.032148	   -0.031270	    0.070360	    0.018669	    0.089029	    0.019364	    0.006546	    0.025910	   -0.077888	   -0.105129	   -0.183017	   -0.030455	   -0.076375	   -0.106830	    0.117174	    0.063195	    0.180369	   -0.041900	   -0.051575	   -0.093475	   -0.111972	   -0.090120	   -0.202092	   -0.030625	   -0.111063	   -0.141689	   -0.015517	   -0.017961	   -0.033478	   -0.041476	   -0.054630	   -0.096105	   -0.093316	   -0.151010	   -0.244325	    0.048343	    0.036622	    0.084965	    0.026499	   -0.003130	    0.023369	   -0.054359	   -0.048746	   -0.103105	   -0.035837	   -0.094128	   -0.129965	   -0.037667	   -0.059878	   -0.097546	   -0.015533	   -0.041975	   -0.057507	   -0.038972	   -0.037967	   -0.076939	    0.051737	    0.032253	    0.083990	    0.014541	    0.020689	    0.035231
     7.875	0	0	    0	   -0.000999	    0.058541	    0.057542	    0.002370	   -0.031295	   -0.028926	    0.058603	    0.024575	    0.083179	    0.017332	    0.012341	    0.029672	   -0.075476	   -0.119394	   -0.194871	   -0.024356	   -0.084492	   -0.108848	    0.116524	    0.073796	    0.190319	   -0.048509	   -0.046790	   -0.095299	   -0.104598	   -0.086012	   -0.190609	   -0.029295	   -0.108326	   -0.137621	   -0.017802	   -0.018740	   -0.036542	   -0.038797	   -0.057515	   -0.096312	   -0.089578	   -0.156748	   -0.246326	    0.042823	    0.037894	    0.080717	    0.032072	   -0.008852	    0.023220	   -0.060695	   -0.046763	   -0.107458	   -0.028419	   -0.093451	   -0.121871	   -0.046622	   -0.060485	   -0.107107	   -0.020885	   -0.041758	   -0.062643	   -0.036008	   -0.041361	   -0.077369	    0.052834	    0.030432	    0.083266	    0.010817	    0.015869	    0.026686
     7.950	0	0	    0	   -0.000993	    0.032501	    0.031508	   -0.003285	   -0.025712	   -0.028997	    0.047393	    0.013096	    0.060489	    0.009567	    0.008988	    0.018555	   -0.077720	   -0.119280	   -0.197000	   -0.031252	   -0.078534	   -0.109787	    0.067361	    0.087522	    0.154883	   -0.053147	   -0.054407	   -0.107554	   -0.089244	   -0.074546	   -0.163790	   -0.031216	   -0.102797	   -0.134013	   -0.022015	   -0.016797	   -0.038812	   -0.032413	   -0.053491	   -0.085904	   -0.082157	   -0.156019	   -0.238175	    0.032475	    0.041288	    0.073764	    0.016137	   -0.007329	    0.008808	   -0.055592	   -0.043981	   -0.099573	   -0.022234	   -0.081600	   -0.103834	   -0.055349	   -0.063497	   -0.118846	   -0.023342	   -0.037099	   -0.060441	   -0.027463	   -0.034156	   -0.061619	    0.051950	    0.034755	    0.086705	   -0.002038	    0.006368	    0.004331
     8.025	0	0	    0	   -0.013768	    0.021824	    0.008056	   -0.003680	   -0.027551	   -0.031231	    0.034367	    0.003361	    0.037727	    0.000476	    0.002782	    0.003258	   -0.069509	   -0.121333	   -0.190842	   -0.017547	   -0.077402	   -0.094949	    0.088028	    0.034600	    0.122628	   -0.058811	   -0.060633	   -0.119444	   -0.083538	   -0.065760	   -0.149298	   -0.034224	   -0.098528	   -0.132753	   -0.025850	   -0.017163	   -0.043013	   -0.027663	   -0.039697	   -0.067361	   -0.058487	   -0.142708	   -0.201195	    0.029998	    0.027938	    0.057937	    0.003645	   -0.006672	   -0.003027	   -0.052794	   -0.046954	   -0.099748	   -0.021181	   -0.071520	   -0.092701	   -0.058098	   -0.063430	   -0.121528	   -0.025849	   -0.029540	   -0.055389	   -0.025120	   -0.018342	   -0.043462	    0.052465	    0.039097	    0.091561	   -0.018345	   -0.003400	   -0.021745
     8.100	0	0	    0	   -0.012045	    0.020675	    0.008630	   -0.012341	   -0.026714	   -0.039055	    0.032030	    0.005847	    0.037876	   -0.004278	   -0.000652	   -0.004930	   -0.064478	   -0.104707	   -0.169184	   -0.029370	   -0.065339	   -0.094709	    0.099984	    0.048272	    0.148256	   -0.060769	   -0.064995	   -0.125764	   -0.094749	   -0.058980	   -0.153728	   -0.037410	   -0.098056	   -0.135466	   -0.028632	   -0.022621	   -0.051253	   -0.035460	   -0.031325	   -0.066784	   -0.077245	   -0.123074	   -0.200319	    0.026825	    0.018890	    0.045714	    0.034560	   -0.012171	    0.022389	   -0.055133	   -0.043127	   -0.098261	   -0.023211	   -0.069125	   -0.092336	   -0.044137	   -0.060375	   -0.104512	   -0.040330	   -0.039646	   -0.079976	   -0.024005	   -0.016042	   -0.040046	    0.042792	    0.039664	    0.082455	    0.025720	   -0.020017	    0.005703
     8.175	0	0	    0	   -0.006706	    0.026187	    0.019480	   -0.011922	   -0.037596	   -0.049518	    0.064260	    0.003125	    0.067384	   -0.003092	   -0.002627	   -0.005719	   -0.082381	   -0.103416	   -0.185797	   -0.048668	   -0.063307	   -0.111975	    0.188569	    0.104567	    0.293135	   -0.053963	   -0.059988	   -0.113950	   -0.127354	   -0.068209	   -0.195563	   -0.043945	   -0.101295	   -0.145240	   -0.006397	   -0.024511	   -0.030908	   -0.047989	   -0.050513	   -0.098503	   -0.112781	   -0.144425	   -0.257206	    0.064079	    0.046467	    0.110546	    0.087736	    0.056832	    0.144568	   -0.061918	   -0.043706	   -0.105625	   -0.024396	   -0.066512	   -0.090908	   -0.027358	   -0.055741	   -0.083099	   -0.013321	   -0.052865	   -0.066185	   -0.029156	   -0.029518	   -0.058674	    0.047785	    0.031377	    0.079162	    0.117258	    0.075112	    0.192370
     8.250	0	0	    0	    0.020724	    0.016665	    0.037389	   -0.002103	   -0.030334	   -0.032438	    0.070279	    0.037135	    0.107413	    0.027473	    0.009200	    0.036673	   -0.100972	   -0.136655	   -0.237627	   -0.067368	   -0.085642	   -0.153010	    0.161733	    0.156952	    0.318685	   -0.043565	   -0.052738	   -0.096302	   -0.143773	   -0.096957	   -0.240730	   -0.050013	   -0.114075	   -0.164089	    0.013405	   -0.000120	    0.013284	   -0.044471	   -0.061576	   -0.106048	   -0.157569	   -0.185229	   -0.342798	    0.080829	    0.062250	    0.143079	    0.099860	    0.052843	    0.152703	   -0.067175	   -0.052413	   -0.119588	   -0.042321	   -0.080255	   -0.122576	   -0.016961	   -0.051351	   -0.068312	    0.003268	   -0.047077	   -0.043809	   -0.030479	   -0.047758	   -0.078237	    0.029259	    0.031741	    0.061000	    0.155945	    0.112483	    0.268428
     8.325	0	0	    0	    0.004198	    0.059101	    0.063299	    0.004589	   -0.022145	   -0.017555	    0.092171	    0.042976	    0.135147	    0.040291	    0.033055	    0.073346	   -0.103273	   -0.140784	   -0.244057	   -0.064067	   -0.084500	   -0.148568	    0.201551	    0.144290	    0.345841	   -0.031034	   -0.036202	   -0.067236	   -0.140457	   -0.102528	   -0.242985	   -0.037634	   -0.119798	   -0.157431	    0.022054	    0.012628	    0.034682	   -0.039257	   -0.058272	   -0.097529	   -0.155892	   -0.201465	   -0.357357	    0.100427	    0.076110	    0.176537	    0.106764	    0.057374	    0.164138	   -0.062393	   -0.047009	   -0.109402	   -0.037015	   -0.092688	   -0.129703	   -0.007436	   -0.052197	   -0.059633	    0.015999	   -0.043798	   -0.027799	   -0.020095	   -0.049785	   -0.069879	    0.042772	    0.024089	    0.066861	    0.170174	    0.140535	    0.310708
     8.400	0	0	    0	    0.049907	    0.027646	    0.077553	    0.013581	   -0.023561	   -0.009980	    0.107309	    0.042252	    0.149560	    0.050736	    0.044628	    0.095364	   -0.091350	   -0.139851	   -0.231201	   -0.049973	   -0.088938	   -0.138911	    0.208071	    0.133765	    0.341836	   -0.012323	   -0.033746	   -0.046069	   -0.130132	   -0.098390	   -0.228521	   -0.024139	   -0.117799	   -0.141937	    0.024626	    0.015678	    0.040304	   -0.030472	   -0.057214	   -0.087686	   -0.147520	   -0.197214	   -0.344734	    0.126362	    0.067966	    0.194328	    0.105936	    0.063206	    0.169142	   -0.054938	   -0.041932	   -0.096870	   -0.029664	   -0.092707	   -0.122371	   -0.002300	   -0.051473	   -0.053773	    0.021409	   -0.041632	   -0.020223	   -0.011649	   -0.047893	   -0.059542	    0.044711	    0.028359	    0.073070	    0.185982	    0.151665	    0.337646
     8.475	0	0	    0	    0.040389	    0.055229	    0.095618	    0.015330	   -0.018233	   -0.002903	    0.108407	    0.051542	    0.159949	    0.052696	    0.050047	    0.102743	   -0.089102	   -0.133285	   -0.222387	   -0.051441	   -0.076777	   -0.128218	    0.208693	    0.149518	    0.358211	   -0.011125	   -0.028767	   -0.039893	   -0.123353	   -0.097240	   -0.220594	   -0.019033	   -0.116725	   -0.135758	    0.025955	    0.018118	    0.044073	   -0.026512	   -0.055175	   -0.081687	   -0.140619	   -0.197748	   -0.338367	    0.115999	    0.080979	    0.196977	    0.105499	    0.066786	    0.172285	   -0.048335	   -0.043177	   -0.091512	   -0.025712	   -0.097068	   -0.122780	   -0.000867	   -0.049226	   -0.050092	    0.024828	   -0.039433	   -0.014605	   -0.006517	   -0.048677	   -0.055194	    0.047630	    0.026691	    0.074321	    0.184337	    0.153096	    0.337433
     8.550	0	0	    0	    0.036718	    0.065334	    0.102052	    0.014258	   -0.017122	   -0.002864	    0.101047	    0.048482	    0.149529	    0.051882	    0.051830	    0.103712	   -0.086498	   -0.130514	   -0.217012	   -0.040800	   -0.083777	   -0.124577	    0.156658	    0.166687	    0.323345	   -0.010010	   -0.026453	   -0.036463	   -0.115380	   -0.095921	   -0.211301	   -0.013090	   -0.116137	   -0.129227	    0.007860	    0.018102	    0.025962	   -0.021883	   -0.053978	   -0.075861	   -0.124827	   -0.201789	   -0.326616	    0.106150	    0.084092	    0.190242	    0.102357	    0.049292	    0.151649	   -0.051554	   -0.042771	   -0.094325	   -0.025494	   -0.099347	   -0.124841	   -0.012645	   -0.046840	   -0.059485	    0.014167	   -0.036896	   -0.022729	   -0.014080	   -0.049106	   -0.063186	    0.042219	    0.025852	    0.068071	    0.135993	    0.149255	    0.285247
     8.625	0	0	    0	    0.022872	    0.046669	    0.069542	    0.011997	   -0.019834	   -0.007837	    0.061690	    0.034562	    0.096252	    0.025377	    0.039188	    0.064565	   -0.070519	   -0.133649	   -0.204167	   -0.018776	   -0.083100	   -0.101876	    0.143576	    0.129686	    0.273262	   -0.035198	   -0.025365	   -0.060563	   -0.087923	   -0.089543	   -0.177466	   -0.018333	   -0.105747	   -0.124080	   -0.018962	   -0.012352	   -0.031314	   -0.016399	   -0.050798	   -0.067198	   -0.094454	   -0.188432	   -0.282886	    0.076304	    0.083604	    0.159908	    0.047951	    0.087797	    0.135748	   -0.055552	   -0.053751	   -0.109303	   -0.021150	   -0.095555	   -0.116704	   -0.043214	   -0.053879	   -0.097093	   -0.013330	   -0.034861	   -0.048191	   -0.010479	   -0.049160	   -0.059639	    0.041755	    0.025784	    0.067539	    0.097943	    0.096438	    0.194380
     8.700	0	0	    0	   -0.006826	    0.024245	    0.017419	    0.009846	   -0.016917	   -0.007071	    0.035491	    0.014128	    0.049619	    0.003764	    0.012001	    0.015765	   -0.058761	   -0.117234	   -0.175996	    0.004819	   -0.066783	   -0.061964	    0.087433	    0.094641	    0.182074	   -0.054820	   -0.055113	   -0.109933	   -0.041718	   -0.055257	   -0.096974	   -0.016181	   -0.095710	   -0.111892	   -0.020819	   -0.021126	   -0.041946	   -0.015283	   -0.036417	   -0.051700	   -0.051318	   -0.165763	   -0.217081	    0.038154	    0.065022	    0.103176	    0.007317	    0.067878	    0.075195	   -0.025512	   -0.040815	   -0.066328	   -0.021194	   -0.067005	   -0.088199	   -0.052650	   -0.055602	   -0.108251	   -0.015591	   -0.026203	   -0.041794	   -0.006363	   -0.019579	   -0.025942	    0.055612	    0.024582	    0.080194	    0.058620	    0.052833	    0.111453
     8.775	0	0	    0	   -0.014115	    0.013587	   -0.000528	    0.006838	   -0.018875	   -0.012037	    0.029984	   -0.001492	    0.028492	   -0.003273	   -0.000750	   -0.004023	   -0.041459	   -0.077773	   -0.119232	    0.004962	   -0.051154	   -0.046192	    0.052670	    0.052646	    0.105316	   -0.062199	   -0.058508	   -0.120708	   -0.024446	   -0.025114	   -0.049560	   -0.000111	   -0.079954	   -0.080064	   -0.019497	   -0.016822	   -0.036319	   -0.008124	   -0.026122	   -0.034246	   -0.038907	   -0.075286	   -0.114193	    0.027802	    0.041625	    0.069427	    0.010152	    0.036151	    0.046303	   -0.020609	   -0.031367	   -0.051976	   -0.017054	   -0.079114	   -0.096169	   -0.053760	   -0.062193	   -0.115953	   -0.016981	   -0.018799	   -0.035780	    0.017540	   -0.000111	    0.017429	    0.041937	    0.047450	    0.089386	    0.036151	    0.044562	    0.080713
     8.850	0	0	    0	   -0.025146	    0.031818	    0.006672	    0.008171	   -0.022486	   -0.014315	    0.021305	   -0.004759	    0.016546	   -0.000939	   -0.001721	   -0.002660	   -0.036434	   -0.065304	   -0.101739	    0.004668	   -0.043341	   -0.038673	    0.047702	    0.028599	    0.076301	   -0.063117	   -0.057385	   -0.120502	   -0.031938	   -0.033360	   -0.065298	    0.000050	   -0.064280	   -0.064230	   -0.014490	   -0.011679	   -0.026170	   -0.008865	   -0.005321	   -0.014186	   -0.025683	   -0.075994	   -0.101677	    0.016032	    0.030875	    0.046907	    0.009856	    0.040858	    0.050714	   -0.039755	   -0.042610	   -0.082365	   -0.000531	   -0.056292	   -0.056823	   -0.052152	   -0.056619	   -0.108771	   -0.012879	   -0.009380	   -0.022259	    0.042103	    0.036101	    0.078204	    0.050738	    0.024680	    0.075418	    0.062461	    0.026356	    0.088817
     8.925	0	0	    0	   -0.005961	    0.019763	    0.013802	    0.004414	   -0.020199	   -0.015785	    0.015743	   -0.005329	    0.010414	   -0.002440	    0.003834	    0.001394	   -0.032541	   -0.065869	   -0.098410	   -0.003849	   -0.041665	   -0.045514	    0.041554	    0.042326	    0.083880	   -0.061994	   -0.062436	   -0.124430	   -0.029298	   -0.037349	   -0.066646	   -0.005165	   -0.060529	   -0.065694	   -0.014824	   -0.006838	   -0.021662	   -0.010242	   -0.002059	   -0.012300	   -0.036471	   -0.069826	   -0.106297	    0.011451	    0.040768	    0.052219	    0.030030	    0.057885	    0.087916	   -0.038630	   -0.056455	   -0.095086	    0.004228	   -0.048303	   -0.044075	   -0.051103	   -0.053496	   -0.104599	   -0.015802	   -0.006341	   -0.022143	    0.039810	    0.043195	    0.083005	    0.037210	    0.030714	    0.067923	    0.082396	    0.049591	    0.131987
     9.000	0	0	    0	   -0.016922	    0.031350	    0.014428	    0.003469	   -0.019444	   -0.015975	    0.018365	   -0.006641	    0.011724	   -0.006955	    0.006481	   -0.000474	   -0.038096	   -0.059508	   -0.097605	   -0.008644	   -0.053559	   -0.062202	    0.037636	    0.038180	    0.075816	   -0.058042	   -0.064699	   -0.122741	   -0.024277	   -0.039265	   -0.063542	   -0.004257	   -0.060116	   -0.064373	   -0.016745	   -0.008247	   -0.024992	   -0.016338	   -0.003175	   -0.019512	   -0.041369	   -0.078047	   -0.119416	    0.022706	    0.032340	    0.055045	    0.065877	    0.030104	    0.095981	   -0.046285	   -0.056654	   -0.102939	    0.007990	   -0.048101	   -0.040111	   -0.049363	   -0.052113	   -0.101476	   -0.019977	   -0.009962	   -0.029939	    0.034831	    0.042839	    0.077669	    0.031214	    0.022820	    0.054034	    0.099002	    0.063693	    0.162695
     9.075	0	0	    0	   -0.012683	    0.023822	    0.011138	   -0.009198	   -0.009271	   -0.018469	    0.018128	   -0.011807	    0.006321	   -0.007391	    0.005668	   -0.001723	   -0.044625	   -0.057997	   -0.102622	   -0.045396	   -0.041443	   -0.086839	    0.011812	    0.026395	    0.038207	   -0.059777	   -0.066480	   -0.126257	   -0.029353	   -0.030770	   -0.060123	   -0.004172	   -0.055050	   -0.059222	   -0.022169	   -0.003002	   -0.025171	   -0.015880	   -0.004984	   -0.020864	   -0.053084	   -0.074299	   -0.127383	    0.011651	    0.029253	    0.040904	    0.034429	    0.032251	    0.066680	   -0.060006	   -0.054995	   -0.115001	    0.008797	   -0.037603	   -0.028806	   -0.033991	   -0.049441	   -0.083432	   -0.025971	   -0.007072	   -0.033043	    0.036402	    0.041078	    0.077481	    0.028138	    0.024709	    0.052847	    0.113532	    0.102185	    0.215717
     9.150	0	0	    0	   -0.005285	   -0.000826	   -0.006111	   -0.010531	   -0.037749	   -0.048280	    0.042005	   -0.012367	    0.029638	   -0.010750	    0.003415	   -0.007335	   -0.082689	   -0.051401	   -0.134090	   -0.030256	   -0.076021	   -0.106276	    0.074993	    0.015747	    0.090740	   -0.078982	   -0.080723	   -0.159705	   -0.107141	   -0.054525	   -0.161666	   -0.027338	   -0.080593	   -0.107931	   -0.023462	   -0.020711	   -0.044173	   -0.045820	   -0.009489	   -0.055309	   -0.128438	   -0.098094	   -0.226532	    0.029252	    0.025491	    0.054743	    0.054969	    0.020749	    0.075718	   -0.099077	   -0.072532	   -0.171609	    0.001659	   -0.030514	   -0.028854	   -0.020206	   -0.035200	   -0.055406	   -0.025513	   -0.030432	   -0.055945	   -0.029379	    0.041677	    0.012298	    0.005731	    0.005522	    0.011253	    0.129879	    0.107455	    0.237333
     9.225	0	0	    0	   -0.023296	    0.015710	   -0.007586	   -0.012885	   -0.038633	   -0.051518	    0.051388	   -0.004363	    0.047025	   -0.002634	   -0.003667	   -0.006301	   -0.097423	   -0.111379	   -0.208802	   -0.029923	   -0.090948	   -0.120871	    0.097444	    0.041990	    0.139434	   -0.085688	   -0.091801	   -0.177489	   -0.125190	   -0.095634	   -0.220824	   -0.035430	   -0.097042	   -0.132472	   -0.014111	   -0.017351	   -0.031461	   -0.060322	   -0.054345	   -0.114667	   -0.117360	   -0.147317	   -0.264676	    0.032331	    0.039014	    0.071345	    0.065166	    0.026213	    0.091379	   -0.103199	   -0.088721	   -0.191921	   -0.017946	   -0.056521	   -0.074466	   -0.018430	   -0.035478	   -0.053908	   -0.016023	   -0.039226	   -0.055249	   -0.051477	   -0.026202	   -0.077679	    0.009344	    0.017197	    0.026541	    0.128794	    0.117625	    0.246420
     9.300	0	0	    0	   -0.017508	    0.018943	    0.001435	   -0.018828	   -0.031841	   -0.050669	    0.039616	    0.016271	    0.055886	    0.001349	    0.003974	    0.005323	   -0.094590	   -0.116004	   -0.210594	   -0.050349	   -0.071854	   -0.122203	    0.059014	    0.098503	    0.157518	   -0.084486	   -0.083892	   -0.168378	   -0.124716	   -0.095036	   -0.219752	   -0.037263	   -0.100492	   -0.137754	   -0.016362	   -0.014381	   -0.030743	   -0.056356	   -0.060757	   -0.117113	   -0.118342	   -0.145985	   -0.264327	    0.029947	    0.037391	    0.067338	    0.068633	    0.029272	    0.097906	   -0.099420	   -0.078687	   -0.178107	   -0.029061	   -0.069129	   -0.098190	   -0.023691	   -0.035528	   -0.059219	   -0.016791	   -0.036614	   -0.053405	   -0.051952	   -0.034915	   -0.086867	    0.008158	    0.018973	    0.027131	    0.138442	    0.114321	    0.252763
     9.375	0	0	    0	   -0.010255	    0.008793	   -0.001462	   -0.014825	   -0.032184	   -0.047009	    0.047715	    0.008774	    0.056489	    0.001996	    0.002839	    0.004835	   -0.096101	   -0.119695	   -0.215797	   -0.044337	   -0.084900	   -0.129237	    0.073629	    0.072689	    0.146318	   -0.086447	   -0.079401	   -0.165848	   -0.119804	   -0.091922	   -0.211726	   -0.036299	   -0.101159	   -0.137458	   -0.019921	   -0.013492	   -0.033413	   -0.053368	   -0.057010	   -0.110378	   -0.117484	   -0.150799	   -0.268282	    0.021535	    0.040593	    0.062127	    0.058938	    0.027593	    0.086531	   -0.097941	   -0.076849	   -0.174790	   -0.031082	   -0.076263	   -0.107345	   -0.035932	   -0.035682	   -0.071615	   -0.021980	   -0.032962	   -0.054942	   -0.053691	   -0.037233	   -0.090924	    0.005678	    0.019390	    0.025068	    0.079665	    0.116972	    0.196637
     9.450	0	0	    0	   -0.023650	    0.017053	   -0.006597	   -0.014240	   -0.024956	   -0.039196	    0.010172	    0.012686	    0.022858	   -0.007901	    0.005107	   -0.002795	   -0.096508	   -0.121001	   -0.217510	   -0.052899	   -0.085116	   -0.138015	    0.013845	    0.070776	    0.084621	   -0.086983	   -0.075126	   -0.162109	   -0.097850	   -0.085597	   -0.183447	   -0.040439	   -0.094361	   -0.134800	   -0.027719	   -0.015859	   -0.043578	   -0.045337	   -0.049628	   -0.094964	   -0.108049	   -0.156094	   -0.264143	   -0.011715	    0.052442	    0.040727	   -0.036253	    0.099172	    0.062919	   -0.096390	   -0.076016	   -0.172406	   -0.029642	   -0.070336	   -0.099977	   -0.052286	   -0.045700	   -0.097986	   -0.030101	   -0.026383	   -0.056484	   -0.040885	   -0.031528	   -0.072413	    0.003761	    0.019779	    0.023540	    0.039774	    0.064892	    0.104666
     9.525	0	0	    0	   -0.016019	    0.007544	   -0.008475	    0.001428	   -0.019697	   -0.018269	    0.011926	   -0.006417	    0.005509	   -0.012542	   -0.002658	   -0.015200	   -0.077179	   -0.109709	   -0.186888	   -0.031214	   -0.073417	   -0.104631	    0.022312	    0.033897	    0.056210	   -0.090869	   -0.074110	   -0.164979	   -0.054566	   -0.057138	   -0.111704	   -0.031992	   -0.092458	   -0.124451	   -0.021660	   -0.013288	   -0.034948	   -0.037900	   -0.033907	   -0.071807	   -0.072701	   -0.125935	   -0.198636	    0.000948	    0.027204	    0.028152	   -0.018027	    0.046356	    0.028329	   -0.069410	   -0.072146	   -0.141555	   -0.021437	   -0.064114	   -0.085551	   -0.045472	   -0.050908	   -0.096380	   -0.026880	   -0.021301	   -0.048180	   -0.036050	   -0.007028	   -0.043078	    0.036511	    0.026672	    0.063183	    0.037677	    0.043003	    0.080680
     9.600	0	0	    0	   -0.012859	    0.013099	    0.000240	   -0.000673	   -0.020100	   -0.020773	    0.052815	   -0.000592	    0.052223	   -0.011376	    0.006461	   -0.004915	   -0.070912	   -0.089605	   -0.160517	   -0.025852	   -0.067808	   -0.093660	    0.093072	    0.017877	    0.110949	   -0.081743	   -0.073795	   -0.155538	   -0.093194	   -0.033955	   -0.127149	   -0.030018	   -0.091763	   -0.121781	   -0.011822	   -0.018938	   -0.030759	   -0.044139	   -0.023919	   -0.068057	   -0.086311	   -0.106375	   -0.192685	    0.023189	    0.017908	    0.041097	    0.012971	    0.020442	    0.033413	   -0.077155	   -0.058748	   -0.135903	   -0.015591	   -0.054648	   -0.070239	   -0.015281	   -0.042224	   -0.057506	   -0.014919	   -0.038145	   -0.053064	   -0.036977	    0.003263	   -0.033714	    0.029983	    0.026516	    0.056499	    0.049864	    0.022460	    0.072324
     9.675	0	0	    0	   -0.002709	    0.040582	    0.037873	    0.012137	   -0.020857	   -0.008721	    0.079911	    0.017086	    0.096996	    0.011776	    0.000633	    0.012409	   -0.099330	   -0.098419	   -0.197750	   -0.036195	   -0.074394	   -0.110589	    0.164864	    0.055140	    0.220004	   -0.063142	   -0.068946	   -0.132087	   -0.107821	   -0.076367	   -0.184187	   -0.031650	   -0.103101	   -0.134752	    0.014367	   -0.000726	    0.013641	   -0.052972	   -0.049835	   -0.102807	   -0.114662	   -0.134973	   -0.249635	    0.066030	    0.047837	    0.113867	    0.056453	    0.048113	    0.104566	   -0.067035	   -0.065138	   -0.132172	   -0.022118	   -0.068463	   -0.090582	   -0.005496	   -0.037073	   -0.042569	    0.008298	   -0.036030	   -0.027732	   -0.038185	   -0.029658	   -0.067842	    0.057786	    0.025352	    0.083138	    0.107521	    0.053723	    0.161244
     9.750	0	0	    0	    0.009645	    0.047448	    0.057093	    0.014054	   -0.012635	    0.001419	    0.083366	    0.031481	    0.114847	    0.028761	    0.028524	    0.057285	   -0.105775	   -0.132365	   -0.238140	   -0.045901	   -0.078074	   -0.123976	    0.151956	    0.111101	    0.263057	   -0.047299	   -0.044104	   -0.091403	   -0.102418	   -0.080040	   -0.182457	   -0.028657	   -0.109753	   -0.138410	    0.018764	    0.011894	    0.030658	   -0.046370	   -0.055954	   -0.102324	   -0.115936	   -0.167114	   -0.283051	    0.079498	    0.069610	    0.149108	    0.088372	    0.040419	    0.128791	   -0.066368	   -0.056793	   -0.123160	   -0.027042	   -0.081971	   -0.109014	   -0.002102	   -0.037407	   -0.039510	    0.015605	   -0.033939	   -0.018334	   -0.026409	   -0.038060	   -0.064469	    0.051822	    0.035468	    0.087290	    0.156753	    0.102187	    0.258940
     9.825	0	0	    0	    0.011212	    0.043097	    0.054308	    0.014533	   -0.013664	    0.000869	    0.083207	    0.037606	    0.120812	    0.039207	    0.033689	    0.072896	   -0.100567	   -0.134359	   -0.234926	   -0.045142	   -0.080209	   -0.125351	    0.153908	    0.122798	    0.276706	   -0.041125	   -0.043666	   -0.084791	   -0.104350	   -0.073693	   -0.178043	   -0.026761	   -0.111318	   -0.138079	    0.023897	    0.013498	    0.037395	   -0.037837	   -0.052603	   -0.090439	   -0.115916	   -0.168297	   -0.284213	    0.075736	    0.075759	    0.151495	    0.091017	    0.048919	    0.139935	   -0.070905	   -0.049484	   -0.120389	   -0.034759	   -0.085181	   -0.119941	   -0.000168	   -0.038658	   -0.038826	    0.021247	   -0.033388	   -0.012141	   -0.023470	   -0.037402	   -0.060872	    0.046462	    0.037539	    0.084002	    0.174595	    0.129224	    0.303819
     9.900	0	0	    0	    0.004707	    0.058577	    0.063285	    0.015388	   -0.010007	    0.005381	    0.087930	    0.040688	    0.128618	    0.043156	    0.042232	    0.085388	   -0.100482	   -0.131393	   -0.231875	   -0.052648	   -0.072116	   -0.124764	    0.140991	    0.145215	    0.286206	   -0.044140	   -0.036166	   -0.080306	   -0.102398	   -0.074655	   -0.177053	   -0.023796	   -0.112321	   -0.136117	    0.028805	    0.019041	    0.047846	   -0.034448	   -0.049728	   -0.084175	   -0.117684	   -0.167480	   -0.285164	    0.083940	    0.079364	    0.163304	    0.088539	    0.052419	    0.140957	   -0.068226	   -0.052942	   -0.121168	   -0.032254	   -0.093815	   -0.126069	    0.000153	   -0.038613	   -0.038460	    0.025705	   -0.032369	   -0.006665	   -0.017182	   -0.038842	   -0.056023	    0.045439	    0.043049	    0.088487	    0.163530	    0.152302	    0.315832
