 [File Information]      		 [Data Line]	36
Measured Date	2024/05/27 094048
ID		Version	11.0
Name	oceane_1	[HeaderType]	11.0/11.0
Comment	
[Measurement Info.]
Holder Location	       0
Block Design	Off     
Pre.Rest Time	       0
Task Time	       0
Pos.Rest Time	       0
Loop	       0
Averaging	       1
Total Points	     819
[.INF File]
Filename	Cognitive1.INF
[Condition-1]
HV Switching	OFF
 R1 ,R2 ,R3 ,R4 ,R5 ,R6 ,R7 ,R8 
 120.00, 70.00,120.00,100.00, 90.00, 70.00,120.00,120.00
 Gain(X1,X4,X16,X64)
 R1 ,R2 ,R3 ,R4 ,R5 ,R6 ,R7 ,R8 
 1,1,1,1,1,1,1,1
[Analysis Condition]
Smoothed Type	None            
Smoothed Points	       0
Smoothed Loop	       0
Baseline Method	None            
Baseline location	
[Text Info.]
Output Mode	Continious      	Task No.		Data Type	Hb      
Time Range	    0.00	   61.35	Averaing	1
(1,3)(5,3)(5,7)(2,7)(2,4)(6,4)(6,8)(1,1)(3,3)(5,5)(7,7)(2,2)(4,4)(6,6)(8,8)(3,1)(3,5)(7,5)(7,2)(4,2)(4,6)(8,6)
         	     	     	     	    ch- 1	    ch- 1	    ch- 1	    ch- 2	    ch- 2	    ch- 2	    ch- 3	    ch- 3	    ch- 3	    ch- 4	    ch- 4	    ch- 4	    ch- 5	    ch- 5	    ch- 5	    ch- 6	    ch- 6	    ch- 6	    ch- 7	    ch- 7	    ch- 7	    ch- 8	    ch- 8	    ch- 8	    ch- 9	    ch- 9	    ch- 9	    ch-10	    ch-10	    ch-10	    ch-11	    ch-11	    ch-11	    ch-12	    ch-12	    ch-12	    ch-13	    ch-13	    ch-13	    ch-14	    ch-14	    ch-14	    ch-15	    ch-15	    ch-15	    ch-16	    ch-16	    ch-16	    ch-17	    ch-17	    ch-17	    ch-18	    ch-18	    ch-18	    ch-19	    ch-19	    ch-19	    ch-20	    ch-20	    ch-20	    ch-21	    ch-21	    ch-21	    ch-22	    ch-22	    ch-22
Time(sec)	Task	Mark	Count	    oxyHb   	  deoxyHb	  totalHb	    oxyHb   	  deoxyHb	  totalHb	    oxyHb   	  deoxyHb	  totalHb	    oxyHb   	  deoxyHb	  totalHb	    oxyHb   	  deoxyHb	  totalHb	    oxyHb   	  deoxyHb	  totalHb	    oxyHb   	  deoxyHb	  totalHb	    oxyHb   	  deoxyHb	  totalHb	    oxyHb   	  deoxyHb	  totalHb	    oxyHb   	  deoxyHb	  totalHb	    oxyHb   	  deoxyHb	  totalHb	    oxyHb   	  deoxyHb	  totalHb	    oxyHb   	  deoxyHb	  totalHb	    oxyHb   	  deoxyHb	  totalHb	    oxyHb   	  deoxyHb	  totalHb	    oxyHb   	  deoxyHb	  totalHb	    oxyHb   	  deoxyHb	  totalHb	    oxyHb   	  deoxyHb	  totalHb	    oxyHb   	  deoxyHb	  totalHb	    oxyHb   	  deoxyHb	  totalHb	    oxyHb   	  deoxyHb	  totalHb	    oxyHb   	  deoxyHb	  totalHb
     0.000	0	0Z	    0	    0.000000	    0.000000	    0.000000	    0.000000	    0.000000	    0.000000	    0.000000	    0.000000	    0.000000	    0.000000	    0.000000	    0.000000	    0.000000	    0.000000	    0.000000	    0.000000	    0.000000	    0.000000	    0.000000	    0.000000	    0.000000	    0.000000	    0.000000	    0.000000	    0.000000	    0.000000	    0.000000	    0.000000	    0.000000	    0.000000	    0.000000	    0.000000	    0.000000	    0.000000	    0.000000	    0.000000	    0.000000	    0.000000	    0.000000	    0.000000	    0.000000	    0.000000	    0.000000	    0.000000	    0.000000	    0.000000	    0.000000	    0.000000	    0.000000	    0.000000	    0.000000	    0.000000	    0.000000	    0.000000	    0.000000	    0.000000	    0.000000	    0.000000	    0.000000	    0.000000	    0.000000	    0.000000	    0.000000	    0.000000	    0.000000	    0.000000
     0.075	0	0	    0	    0.014755	   -0.012956	    0.001800	    0.005373	    0.004728	    0.010101	   -0.011832	   -0.000854	   -0.012686	   -0.002352	   -0.001590	   -0.003943	    0.016024	   -0.013458	    0.002566	    0.013149	   -0.013882	   -0.000734	   -0.008074	   -0.020286	   -0.028360	    0.012472	   -0.001491	    0.010981	    0.015098	   -0.001177	    0.013921	    0.023948	   -0.013031	    0.010917	   -0.022533	   -0.004345	   -0.026878	    0.019400	    0.015107	    0.034507	    0.034525	   -0.014159	    0.020366	   -0.003295	    0.005223	    0.001927	   -0.006134	    0.009899	    0.003766	    0.013218	    0.005126	    0.018344	    0.007094	    0.001530	    0.008624	   -0.017625	   -0.000004	   -0.017629	   -0.000333	    0.005352	    0.005019	    0.028144	    0.006747	    0.034891	    0.019570	    0.005318	    0.024888	   -0.007881	    0.015518	    0.007637
     0.150	0	0	    0	   -0.006002	   -0.004925	   -0.010927	    0.011859	    0.011568	    0.023427	   -0.025489	   -0.013712	   -0.039201	   -0.008871	   -0.013880	   -0.022751	    0.037382	   -0.006217	    0.031165	    0.038297	    0.001022	    0.039319	   -0.067494	   -0.031943	   -0.099437	   -0.000657	    0.007110	    0.006453	    0.069460	    0.012392	    0.081852	    0.034167	   -0.006440	    0.027727	   -0.015716	   -0.007524	   -0.023240	    0.040855	    0.033161	    0.074016	    0.103902	    0.024270	    0.128173	   -0.009376	    0.006369	   -0.003007	   -0.086468	    0.050415	   -0.036053	    0.055675	    0.013036	    0.068711	    0.011908	    0.012774	    0.024682	    0.013192	   -0.008874	    0.004318	    0.023204	    0.031188	    0.054392	    0.057465	    0.037437	    0.094902	    0.037108	    0.015577	    0.052685	   -0.063671	   -0.051449	   -0.115121
     0.225	0	0	    0	   -0.000225	   -0.020648	   -0.020874	    0.028993	    0.012877	    0.041871	   -0.022023	   -0.023590	   -0.045613	    0.000241	   -0.020507	   -0.020266	    0.050437	    0.015886	    0.066324	    0.061636	    0.025421	    0.087057	   -0.070755	   -0.062672	   -0.133427	    0.007584	    0.001663	    0.009247	    0.143642	    0.070170	    0.213812	    0.018411	    0.016154	    0.034565	   -0.011026	   -0.000954	   -0.011980	    0.050514	    0.062056	    0.112570	    0.142495	    0.088884	    0.231380	   -0.000533	   -0.014286	   -0.014819	   -0.052616	   -0.029632	   -0.082248	    0.137385	    0.062186	    0.199571	    0.070539	    0.056688	    0.127227	    0.018606	    0.065655	    0.084261	    0.025272	    0.048425	    0.073697	    0.070801	    0.068176	    0.138976	    0.056385	    0.022005	    0.078390	   -0.090586	   -0.076431	   -0.167016
     0.300	0	0	    0	    0.015293	   -0.014606	    0.000687	    0.028085	    0.021572	    0.049657	   -0.029399	   -0.021714	   -0.051113	    0.003627	   -0.016484	   -0.012856	    0.061393	    0.031712	    0.093105	    0.067050	    0.059312	    0.126362	   -0.092860	   -0.049631	   -0.142491	    0.018629	   -0.005867	    0.012762	    0.162439	    0.137123	    0.299562	    0.005038	    0.017517	    0.022556	   -0.015411	    0.000095	   -0.015317	    0.047780	    0.056044	    0.103824	    0.155700	    0.132721	    0.288421	   -0.001333	   -0.015101	   -0.016434	   -0.040842	   -0.040228	   -0.081071	    0.139530	    0.132002	    0.271532	    0.100908	    0.064592	    0.165500	    0.025259	    0.057907	    0.083166	    0.025717	    0.045954	    0.071672	    0.077930	    0.077968	    0.155899	    0.055861	    0.034378	    0.090239	   -0.086591	   -0.105024	   -0.191614
     0.375	0	0	    0	    0.012089	   -0.002657	    0.009432	    0.024644	    0.020955	    0.045599	   -0.014430	   -0.027831	   -0.042261	    0.001240	   -0.010210	   -0.008970	    0.066610	    0.040765	    0.107374	    0.068798	    0.057862	    0.126661	   -0.037845	   -0.084258	   -0.122103	    0.016698	   -0.004265	    0.012434	    0.159555	    0.154752	    0.314308	    0.034619	   -0.026192	    0.008427	   -0.020604	   -0.005787	   -0.026391	    0.043807	    0.052906	    0.096714	    0.132402	    0.145219	    0.277621	   -0.013201	   -0.019390	   -0.032590	   -0.035693	   -0.043681	   -0.079374	    0.141451	    0.125553	    0.267004	    0.109044	    0.080358	    0.189402	    0.040251	    0.059318	    0.099569	    0.015420	    0.041798	    0.057217	    0.075305	    0.084023	    0.159328	    0.042825	    0.037995	    0.080820	   -0.084483	   -0.118053	   -0.202536
     0.450	0	0	    0	    0.025181	   -0.007256	    0.017924	    0.016787	    0.017064	    0.033851	   -0.019301	   -0.023997	   -0.043298	   -0.004609	   -0.015460	   -0.020069	    0.067522	    0.052059	    0.119581	    0.056650	    0.066672	    0.123322	   -0.043403	   -0.034676	   -0.078079	    0.016901	   -0.003656	    0.013245	    0.148601	    0.142620	    0.291221	    0.003175	    0.029133	    0.032308	   -0.020777	   -0.011896	   -0.032673	    0.030847	    0.040230	    0.071077	    0.123431	    0.118690	    0.242121	   -0.007508	   -0.022369	   -0.029876	   -0.013573	   -0.011358	   -0.024931	    0.131758	    0.122201	    0.253959	    0.108842	    0.110552	    0.219393	    0.034401	    0.069185	    0.103586	    0.008446	    0.025381	    0.033827	    0.079242	    0.072760	    0.152002	    0.038799	    0.021513	    0.060312	   -0.038558	   -0.098173	   -0.136731
     0.525	0	0	    0	    0.018653	   -0.004049	    0.014604	    0.006039	    0.007738	    0.013776	   -0.008453	   -0.028922	   -0.037375	   -0.005004	   -0.018755	   -0.023759	    0.066173	    0.054452	    0.120624	    0.058698	    0.060193	    0.118891	   -0.031448	   -0.035865	   -0.067313	    0.011979	   -0.000892	    0.011086	    0.123202	    0.141039	    0.264240	    0.016222	    0.032293	    0.048514	   -0.016096	   -0.015184	   -0.031280	    0.027798	    0.034099	    0.061897	    0.119532	    0.119712	    0.239244	   -0.000186	   -0.004943	   -0.005129	    0.017474	    0.005115	    0.022590	    0.117633	    0.118572	    0.236205	    0.135935	    0.085457	    0.221392	    0.040153	    0.063058	    0.103210	    0.003042	    0.019541	    0.022582	    0.081570	    0.069835	    0.151405	    0.034772	    0.022750	    0.057522	   -0.001429	   -0.048858	   -0.050287
     0.600	0	0	    0	    0.008643	    0.001658	    0.010301	   -0.005046	    0.002997	   -0.002050	   -0.007770	   -0.013317	   -0.021087	   -0.001440	   -0.014256	   -0.015696	    0.061994	    0.059050	    0.121045	    0.026827	    0.079122	    0.105949	   -0.004927	   -0.009994	   -0.014921	    0.004076	   -0.009025	   -0.004950	    0.087286	    0.113030	    0.200315	    0.020758	    0.020646	    0.041404	   -0.004790	   -0.016024	   -0.020813	    0.005421	    0.024831	    0.030252	    0.078213	    0.110721	    0.188934	    0.007340	   -0.009586	   -0.002245	    0.012377	    0.004614	    0.016991	    0.091008	    0.094678	    0.185686	    0.107683	    0.116574	    0.224257	    0.009931	    0.035682	    0.045613	    0.000411	   -0.006146	   -0.005735	    0.043376	    0.064977	    0.108353	    0.029143	    0.023470	    0.052613	   -0.017370	   -0.017893	   -0.035263
     0.675	0	0	    0	   -0.001362	    0.017285	    0.015923	    0.008674	    0.000793	    0.009467	    0.012461	   -0.000367	    0.012093	    0.014967	   -0.003940	    0.011026	    0.001126	    0.026908	    0.028034	    0.007648	    0.009790	    0.017438	    0.033455	   -0.002615	    0.030840	    0.007462	    0.002273	    0.009735	    0.012591	    0.050174	    0.062765	    0.008914	   -0.017365	   -0.008451	    0.002335	    0.004402	    0.006738	   -0.005237	    0.001022	   -0.004215	    0.000045	    0.002656	    0.002701	    0.024262	    0.002709	    0.026971	    0.021165	   -0.003767	    0.017398	    0.013835	    0.054847	    0.068682	   -0.001607	    0.087316	    0.085709	    0.008694	   -0.008583	    0.000111	    0.002399	   -0.008639	   -0.006240	   -0.001464	    0.001840	    0.000376	    0.002949	    0.002851	    0.005800	   -0.002289	   -0.018032	   -0.020322
     0.750	0	0	    0	    0.001487	   -0.001020	    0.000467	    0.012029	    0.010324	    0.022352	   -0.020839	   -0.002862	   -0.023702	    0.007330	    0.009119	    0.016450	    0.006049	   -0.014285	   -0.008236	   -0.000276	   -0.000877	   -0.001153	   -0.003030	    0.003462	    0.000432	    0.008471	    0.001060	    0.009531	    0.058367	    0.016352	    0.074720	    0.008014	    0.008989	    0.017002	   -0.033368	   -0.014303	   -0.047671	    0.005804	    0.004903	    0.010707	    0.026833	   -0.003341	    0.023492	    0.018920	    0.006008	    0.024928	    0.020465	   -0.004931	    0.015534	    0.033023	    0.014960	    0.047983	    0.037165	    0.020456	    0.057620	   -0.012833	   -0.008952	   -0.021784	   -0.005338	   -0.004735	   -0.010073	    0.019544	    0.003673	    0.023217	    0.011422	    0.009923	    0.021345	   -0.064336	   -0.026450	   -0.090786
     0.825	0	0	    0	   -0.002535	   -0.011176	   -0.013711	    0.017542	    0.016277	    0.033819	   -0.041286	   -0.030422	   -0.071707	   -0.008400	   -0.016456	   -0.024856	    0.020490	   -0.027900	   -0.007410	    0.044387	    0.010433	    0.054820	   -0.033716	   -0.031675	   -0.065391	   -0.000078	   -0.001597	   -0.001675	    0.155213	    0.044393	    0.199606	    0.030823	    0.045380	    0.076203	   -0.032975	   -0.020842	   -0.053817	    0.030772	    0.018449	    0.049221	    0.129614	    0.021900	    0.151513	   -0.005732	    0.007111	    0.001379	   -0.058040	    0.031799	   -0.026241	    0.112541	    0.035072	    0.147613	    0.131205	    0.021633	    0.152838	    0.034839	    0.023246	    0.058084	    0.016982	    0.028491	    0.045473	    0.070758	    0.033538	    0.104296	    0.034413	    0.032061	    0.066473	   -0.051532	   -0.085820	   -0.137352
     0.900	0	0	    0	   -0.005016	    0.000487	   -0.004529	    0.022017	    0.022424	    0.044441	   -0.047678	   -0.035885	   -0.083563	   -0.012750	   -0.021419	   -0.034169	    0.051236	    0.013318	    0.064554	    0.073409	    0.045049	    0.118459	   -0.059145	   -0.060265	   -0.119410	   -0.002899	    0.010342	    0.007443	    0.200823	    0.235141	    0.435965	    0.022886	    0.033176	    0.056062	   -0.032820	   -0.016224	   -0.049044	    0.028708	    0.058121	    0.086829	    0.144503	    0.114684	    0.259187	   -0.002640	   -0.006173	   -0.008813	   -0.045508	    0.003590	   -0.041919	    0.115013	    0.186113	    0.301126	    0.138726	    0.277002	    0.415729	    0.017078	    0.108784	    0.125862	    0.002303	    0.037240	    0.039543	    0.098031	    0.103880	    0.201910	    0.015182	    0.031203	    0.046385	   -0.060328	   -0.080623	   -0.140951
     0.975	0	0	    0	    0.011508	   -0.006846	    0.004662	    0.017058	    0.025543	    0.042601	   -0.057151	   -0.032877	   -0.090028	   -0.006424	   -0.022412	   -0.028836	    0.071706	    0.054444	    0.126150	    0.061566	    0.083833	    0.145399	   -0.088300	   -0.049421	   -0.137721	   -0.005875	   -0.007877	   -0.013752	    0.191088	    0.315101	    0.506189	   -0.035561	    0.040203	    0.004642	   -0.030377	   -0.017032	   -0.047409	    0.014545	    0.032901	    0.047446	    0.156749	    0.156822	    0.313570	   -0.013413	   -0.013124	   -0.026537	   -0.043574	   -0.003909	   -0.047483	    0.098072	    0.215438	    0.313510	    0.143540	    0.323564	    0.467104	   -0.005511	    0.087977	    0.082467	   -0.000903	    0.021440	    0.020537	    0.104555	    0.096425	    0.200980	    0.014926	    0.015683	    0.030610	   -0.074155	   -0.090951	   -0.165106
     1.050	0	0	    0	    0.017163	    0.000863	    0.018026	    0.027023	    0.021434	    0.048457	   -0.034808	   -0.044702	   -0.079509	   -0.000928	   -0.020728	   -0.021656	    0.076466	    0.068284	    0.144750	    0.091009	    0.069905	    0.160914	   -0.039380	   -0.079648	   -0.119028	   -0.001994	   -0.022888	   -0.024881	    0.183528	    0.326911	    0.510438	   -0.003218	   -0.009287	   -0.012506	   -0.030095	   -0.014752	   -0.044847	    0.014378	    0.018820	    0.033198	    0.159001	    0.166906	    0.325907	   -0.005229	   -0.029223	   -0.034452	   -0.041484	   -0.002803	   -0.044287	    0.081862	    0.217562	    0.299424	    0.160307	    0.276707	    0.437014	    0.007301	    0.065493	    0.072793	    0.002069	    0.016281	    0.018349	    0.114053	    0.092205	    0.206258	    0.026289	    0.013599	    0.039889	   -0.079377	   -0.102518	   -0.181895
     1.125	0	0	    0	    0.027988	   -0.003702	    0.024287	    0.000254	    0.010251	    0.010505	   -0.010967	   -0.031354	   -0.042321	   -0.007864	   -0.021337	   -0.029202	    0.086567	    0.075751	    0.162318	    0.070289	    0.097428	    0.167717	    0.012033	   -0.043180	   -0.031147	   -0.001092	   -0.026400	   -0.027493	    0.151040	    0.315957	    0.466997	    0.033810	    0.042660	    0.076470	   -0.031338	   -0.032935	   -0.064274	   -0.003775	    0.020650	    0.016875	    0.145412	    0.155383	    0.300794	   -0.005752	   -0.020314	   -0.026066	    0.026770	    0.016636	    0.043405	    0.082357	    0.205361	    0.287718	    0.200911	    0.285264	    0.486175	    0.012814	    0.107467	    0.120282	   -0.029007	   -0.011561	   -0.040567	    0.090758	    0.110286	    0.201044	    0.014755	    0.006213	    0.020967	   -0.058996	   -0.083120	   -0.142116
     1.200	0	0	    0	    0.014519	    0.016419	    0.030939	    0.006101	   -0.004498	    0.001603	    0.023647	   -0.020917	    0.002730	    0.009105	   -0.023878	   -0.014773	    0.029453	    0.067666	    0.097119	    0.019744	    0.062916	    0.082659	    0.065575	   -0.010837	    0.054739	    0.008373	   -0.022275	   -0.013902	   -0.021247	    0.145915	    0.124667	   -0.010580	    0.011971	    0.001391	    0.005367	   -0.013752	   -0.008386	   -0.028728	   -0.032125	   -0.060854	    0.072062	    0.086068	    0.158130	    0.037324	   -0.005381	    0.031943	    0.032709	    0.008250	    0.040958	   -0.038944	    0.102201	    0.063257	   -0.029329	    0.201692	    0.172363	   -0.033845	   -0.037282	   -0.071127	   -0.002621	   -0.023311	   -0.025932	    0.022988	   -0.008718	    0.014269	    0.047923	   -0.012463	    0.035460	   -0.034452	   -0.054468	   -0.088921
     1.275	0	0	    0	    0.041098	    0.018984	    0.060083	    0.004924	    0.007594	    0.012517	    0.018570	    0.014097	    0.032667	    0.027989	    0.004768	    0.032757	    0.020483	    0.007094	    0.027577	   -0.009853	    0.064267	    0.054415	    0.030027	    0.063857	    0.093884	    0.037229	    0.000738	    0.037967	   -0.015646	   -0.035307	   -0.050953	   -0.070002	   -0.159547	   -0.229549	    0.011817	    0.006790	    0.018607	   -0.014609	   -0.018173	   -0.032782	    0.064686	    0.082521	    0.147207	    0.041249	    0.026860	    0.068109	    0.029444	    0.013550	    0.042994	   -0.041166	   -0.065220	   -0.106386	   -0.081250	   -0.160610	   -0.241860	   -0.087151	   -0.247717	   -0.334868	   -0.010957	   -0.034926	   -0.045884	    0.038224	    0.021388	    0.059611	    0.043800	    0.031518	    0.075318	    0.001546	   -0.036585	   -0.035040
     1.350	0	0	    0	    0.041380	    0.028662	    0.070042	    0.017251	    0.005557	    0.022808	    0.001629	   -0.001682	   -0.000053	    0.019919	    0.022160	    0.042079	    0.026106	   -0.000565	    0.025542	    0.034414	    0.021403	    0.055817	    0.075825	    0.001064	    0.076889	    0.026466	    0.022624	    0.049090	    0.012092	   -0.052751	   -0.040659	   -0.020652	   -0.290135	   -0.310788	   -0.034334	   -0.006128	   -0.040462	   -0.000947	   -0.009859	   -0.010807	    0.092445	    0.074261	    0.166706	    0.037678	    0.026852	    0.064530	    0.033567	    0.020210	    0.053777	   -0.038947	   -0.083577	   -0.122524	   -0.063359	   -0.340505	   -0.403864	   -0.095080	   -0.318146	   -0.413226	   -0.027045	   -0.028417	   -0.055462	    0.051843	    0.028082	    0.079925	    0.039595	    0.046590	    0.086185	    0.022837	    0.002450	    0.025288
     1.425	0	0	    0	    0.004582	   -0.002040	    0.002542	    0.030421	    0.019778	    0.050200	   -0.040351	   -0.035729	   -0.076081	   -0.013226	   -0.019327	   -0.032553	    0.036309	   -0.005424	    0.030885	    0.030677	    0.029572	    0.060249	   -0.018374	    0.004958	   -0.013416	    0.005247	    0.004668	    0.009915	    0.070611	   -0.013866	    0.056745	    0.015444	   -0.235995	   -0.220551	   -0.039584	   -0.032357	   -0.071940	    0.024385	    0.001606	    0.025991	    0.139352	    0.090237	    0.229589	    0.002057	    0.015624	    0.017681	    0.019345	    0.033226	    0.052571	   -0.016869	   -0.070278	   -0.087147	   -0.025027	   -0.294235	   -0.319262	   -0.016860	   -0.290573	   -0.307433	   -0.009920	   -0.005835	   -0.015755	    0.089928	    0.045867	    0.135795	    0.031145	    0.052734	    0.083879	    0.013625	    0.007449	    0.021074
     1.500	0	0	    0	    0.006972	   -0.015658	   -0.008686	    0.031622	    0.035646	    0.067267	   -0.040905	   -0.040879	   -0.081784	   -0.022984	   -0.026101	   -0.049085	    0.053864	    0.020558	    0.074423	    0.061799	    0.042468	    0.104268	   -0.060462	   -0.030307	   -0.090768	    0.007182	   -0.004617	    0.002565	    0.137902	    0.057176	    0.195078	    0.062102	    0.041012	    0.103114	   -0.036936	   -0.025958	   -0.062895	    0.046855	    0.053501	    0.100356	    0.147551	    0.145094	    0.292645	    0.012701	   -0.007834	    0.004867	    0.032567	   -0.011529	    0.021038	    0.061784	   -0.005445	    0.056339	    0.127120	    0.024354	    0.151474	    0.034271	    0.016043	    0.050314	    0.011333	    0.044202	    0.055535	    0.121403	    0.090514	    0.211917	    0.027844	    0.065727	    0.093571	   -0.033303	   -0.004547	   -0.037851
     1.575	0	0	    0	    0.006876	    0.006857	    0.013732	    0.030140	    0.037647	    0.067787	   -0.046134	   -0.038144	   -0.084279	   -0.015712	   -0.025312	   -0.041024	    0.079740	    0.064853	    0.144593	    0.074635	    0.099732	    0.174367	   -0.061302	   -0.051700	   -0.113001	   -0.003260	    0.002762	   -0.000498	    0.144794	    0.161463	    0.306257	    0.017138	    0.090331	    0.107469	   -0.035057	   -0.024919	   -0.059977	    0.028310	    0.068107	    0.096417	    0.181778	    0.179853	    0.361631	   -0.022931	    0.003070	   -0.019861	   -0.056077	    0.057543	    0.001467	    0.052023	    0.088996	    0.141019	    0.085293	    0.234050	    0.319343	    0.028147	    0.074273	    0.102420	    0.002587	    0.035351	    0.037939	    0.139776	    0.130794	    0.270570	    0.030655	    0.023665	    0.054321	   -0.056175	   -0.072880	   -0.129055
     1.650	0	0	    0	    0.017125	    0.010044	    0.027169	    0.030458	    0.034101	    0.064559	   -0.045894	   -0.043172	   -0.089066	   -0.014062	   -0.021231	   -0.035294	    0.083273	    0.105098	    0.188371	    0.081619	    0.104299	    0.185918	   -0.055523	   -0.073903	   -0.129426	   -0.013015	   -0.012900	   -0.025914	    0.181419	    0.175149	    0.356568	    0.013370	    0.017481	    0.030851	   -0.035154	   -0.023532	   -0.058685	    0.015456	    0.033602	    0.049058	    0.192908	    0.207912	    0.400820	   -0.024030	   -0.020749	   -0.044779	   -0.056766	    0.035474	   -0.021292	    0.073250	    0.082666	    0.155916	    0.115722	    0.193452	    0.309174	    0.008225	    0.065797	    0.074022	    0.001675	    0.019003	    0.020678	    0.142753	    0.112413	    0.255166	    0.034857	    0.012913	    0.047771	   -0.071816	   -0.097463	   -0.169279
     1.725	0	0	    0	    0.028957	    0.006492	    0.035448	    0.007382	    0.037226	    0.044608	   -0.025849	   -0.046468	   -0.072317	   -0.011686	   -0.022018	   -0.033705	    0.094767	    0.106704	    0.201471	    0.073472	    0.113531	    0.187003	   -0.033993	   -0.069537	   -0.103529	   -0.014016	   -0.036402	   -0.050418	    0.175861	    0.185664	    0.361525	    0.002793	    0.000183	    0.002976	   -0.050261	   -0.022672	   -0.072933	    0.016706	    0.020781	    0.037487	    0.178778	    0.228473	    0.407250	   -0.042437	   -0.030276	   -0.072713	   -0.054112	    0.022732	   -0.031380	    0.072660	    0.073149	    0.145810	    0.119962	    0.159961	    0.279923	    0.050438	    0.036028	    0.086466	   -0.013188	    0.017970	    0.004783	    0.149142	    0.108256	    0.257398	    0.022796	    0.019844	    0.042640	   -0.091990	   -0.113841	   -0.205831
     1.800	0	0	    0	    0.023486	    0.019686	    0.043172	    0.002433	    0.010906	    0.013339	   -0.003958	   -0.029539	   -0.033498	   -0.018007	   -0.031530	   -0.049538	    0.084117	    0.130807	    0.214923	    0.048545	    0.130503	    0.179048	    0.020185	   -0.032892	   -0.012707	   -0.012890	   -0.042361	   -0.055252	    0.030576	    0.198134	    0.228710	    0.021060	    0.070946	    0.092005	   -0.025161	   -0.040927	   -0.066088	   -0.023675	    0.009195	   -0.014479	    0.120981	    0.207572	    0.328553	   -0.014137	   -0.029743	   -0.043880	   -0.037799	    0.033670	   -0.004129	   -0.034045	    0.093092	    0.059046	    0.039984	    0.296978	    0.336962	   -0.017027	    0.047626	    0.030598	   -0.023117	   -0.019991	   -0.043108	    0.051257	    0.121370	    0.172627	    0.013119	    0.000442	    0.013561	   -0.085937	   -0.116981	   -0.202918
     1.875	0	0	    0	    0.035746	    0.004180	    0.039926	    0.006965	    0.007781	    0.014746	    0.003544	   -0.006855	   -0.003311	    0.003730	   -0.021413	   -0.017683	    0.044483	    0.054001	    0.098484	    0.031210	    0.081238	    0.112448	    0.026905	   -0.001897	    0.025008	    0.003191	   -0.038931	   -0.035740	   -0.026045	   -0.019620	   -0.045666	   -0.009656	   -0.067981	   -0.077636	   -0.012412	   -0.015477	   -0.027889	   -0.021240	   -0.020559	   -0.041799	    0.114994	    0.115050	    0.230043	    0.001772	    0.002100	    0.003872	   -0.012041	    0.039520	    0.027479	   -0.087061	   -0.089540	   -0.176601	   -0.054137	   -0.033497	   -0.087635	   -0.020368	   -0.116630	   -0.136998	   -0.025703	   -0.028013	   -0.053716	    0.047496	    0.020100	    0.067596	    0.025544	    0.009752	    0.035295	   -0.068456	   -0.083665	   -0.152121
     1.950	0	0	    0	    0.028495	    0.021878	    0.050373	    0.005075	    0.015079	    0.020154	    0.000521	   -0.012663	   -0.012142	   -0.000018	   -0.005181	   -0.005199	    0.044917	    0.037319	    0.082236	    0.049460	    0.067782	    0.117242	    0.016743	    0.014541	    0.031284	   -0.005424	   -0.012129	   -0.017553	   -0.012742	   -0.028504	   -0.041246	    0.032846	   -0.100198	   -0.067352	   -0.021025	   -0.014908	   -0.035933	   -0.016800	   -0.013402	   -0.030202	    0.129237	    0.115882	    0.245119	    0.020661	    0.003336	    0.023997	    0.028046	    0.009701	    0.037747	   -0.077282	   -0.100539	   -0.177822	   -0.003877	   -0.119288	   -0.123165	   -0.010131	   -0.137449	   -0.147579	   -0.029903	   -0.032183	   -0.062086	    0.065292	    0.032267	    0.097560	    0.039873	    0.018647	    0.058520	   -0.047620	   -0.058114	   -0.105733
     2.025	0	0	    0	    0.048262	    0.006646	    0.054908	    0.009937	    0.015347	    0.025285	    0.000963	   -0.008049	   -0.007086	   -0.000755	   -0.016064	   -0.016819	    0.060804	    0.037181	    0.097985	    0.048554	    0.075148	    0.123702	    0.031830	    0.020503	    0.052333	    0.007704	   -0.020182	   -0.012478	   -0.009553	   -0.022068	   -0.031621	    0.025214	   -0.079321	   -0.054107	   -0.005439	   -0.020453	   -0.025892	   -0.011341	   -0.009813	   -0.021154	    0.137891	    0.124004	    0.261895	    0.026167	    0.003343	    0.029510	    0.037886	    0.001122	    0.039008	   -0.070604	   -0.093932	   -0.164536	    0.002780	   -0.108923	   -0.106143	    0.001796	   -0.141160	   -0.139364	   -0.023454	   -0.034937	   -0.058390	    0.080011	    0.044733	    0.124744	    0.050315	    0.028483	    0.078798	   -0.024014	   -0.042180	   -0.066194
     2.100	0	0	    0	    0.024508	    0.034550	    0.059058	    0.017509	    0.013359	    0.030868	    0.017779	   -0.005749	    0.012030	    0.014418	   -0.012155	    0.002262	    0.050762	    0.046076	    0.096838	    0.056163	    0.063295	    0.119458	    0.064632	    0.011146	    0.075778	    0.016163	   -0.018464	   -0.002302	   -0.015984	   -0.040723	   -0.056707	    0.046800	   -0.124798	   -0.077998	   -0.013124	   -0.007385	   -0.020508	   -0.008411	   -0.013812	   -0.022224	    0.122644	    0.130386	    0.253030	    0.048047	    0.012021	    0.060068	    0.020831	    0.022131	    0.042962	   -0.073563	   -0.102207	   -0.175771	   -0.017362	   -0.119079	   -0.136441	   -0.006648	   -0.154925	   -0.161573	   -0.028821	   -0.040213	   -0.069034	    0.063211	    0.046358	    0.109569	    0.054843	    0.040954	    0.095797	   -0.058176	   -0.027250	   -0.085426
     2.175	0	0	    0	    0.014442	    0.037507	    0.051949	    0.022243	    0.019158	    0.041400	   -0.018913	   -0.008283	   -0.027197	    0.001312	   -0.007019	   -0.005707	    0.063210	    0.041840	    0.105050	    0.057406	    0.076868	    0.134274	    0.005116	    0.018757	    0.023872	    0.006590	   -0.007207	   -0.000617	    0.023033	   -0.029279	   -0.006247	    0.045398	   -0.108640	   -0.063242	   -0.040837	   -0.033241	   -0.074078	    0.007900	   -0.006971	    0.000929	    0.167673	    0.133988	    0.301661	    0.009692	    0.023357	    0.033050	   -0.036241	    0.031575	   -0.004666	   -0.048268	   -0.097969	   -0.146237	    0.004563	   -0.124851	   -0.120288	   -0.023345	   -0.157471	   -0.180815	   -0.024185	   -0.033112	   -0.057297	    0.089129	    0.049775	    0.138904	    0.063923	    0.044657	    0.108580	   -0.070884	   -0.085073	   -0.155957
     2.250	0	0	    0	    0.019293	    0.014562	    0.033856	    0.027543	    0.030330	    0.057873	   -0.034169	   -0.025139	   -0.059308	   -0.009711	   -0.024957	   -0.034668	    0.079021	    0.056423	    0.135444	    0.066551	    0.098639	    0.165190	   -0.033862	    0.002445	   -0.031417	   -0.004671	   -0.013458	   -0.018129	    0.060727	    0.002640	    0.063367	    0.075292	    0.018040	    0.093332	   -0.033917	   -0.035998	   -0.069915	    0.028164	    0.018498	    0.046662	    0.213282	    0.185914	    0.399197	    0.004107	    0.004544	    0.008651	   -0.025552	    0.013232	   -0.012320	   -0.006138	   -0.082367	   -0.088506	    0.078093	   -0.087205	   -0.009112	    0.033957	   -0.005842	    0.028116	   -0.012919	    0.000924	   -0.011994	    0.113768	    0.100355	    0.214123	    0.069732	    0.049946	    0.119678	   -0.080355	   -0.084704	   -0.165059
     2.325	0	0	    0	    0.009236	    0.026199	    0.035434	    0.038715	    0.031544	    0.070259	   -0.031695	   -0.033889	   -0.065584	   -0.007609	   -0.028345	   -0.035954	    0.091684	    0.082125	    0.173809	    0.089474	    0.105341	    0.194815	   -0.033054	   -0.035221	   -0.068275	    0.005439	   -0.030318	   -0.024879	    0.084044	    0.050093	    0.134136	    0.063239	    0.115471	    0.178710	   -0.030198	   -0.029163	   -0.059361	    0.030787	    0.048394	    0.079181	    0.207725	    0.191095	    0.398820	    0.001710	   -0.015037	   -0.013327	   -0.011199	   -0.011139	   -0.022338	    0.012703	   -0.029369	   -0.016666	    0.077879	    0.130085	    0.207964	    0.043634	    0.083656	    0.127290	   -0.002259	    0.025208	    0.022949	    0.147133	    0.117805	    0.264938	    0.060168	    0.027286	    0.087453	   -0.079857	   -0.105405	   -0.185262
     2.400	0	0	    0	    0.036550	    0.003162	    0.039712	    0.038633	    0.034701	    0.073334	   -0.039982	   -0.034765	   -0.074748	   -0.000296	   -0.026070	   -0.026366	    0.104456	    0.096425	    0.200880	    0.085996	    0.110680	    0.196676	   -0.044518	   -0.055953	   -0.100471	    0.005176	   -0.029586	   -0.024411	    0.088652	    0.079778	    0.168429	    0.050219	    0.127308	    0.177526	   -0.032202	   -0.026326	   -0.058528	    0.023560	    0.042089	    0.065648	    0.205756	    0.205911	    0.411667	   -0.000940	   -0.023288	   -0.024227	   -0.024904	   -0.010712	   -0.035616	    0.010623	   -0.009066	    0.001556	    0.071449	    0.168842	    0.240291	    0.034839	    0.098499	    0.133337	   -0.003121	    0.025493	    0.022373	    0.147815	    0.128205	    0.276020	    0.054012	    0.021000	    0.075012	   -0.087553	   -0.105907	   -0.193460
     2.475	0	0	    0	    0.026202	    0.018430	    0.044632	    0.026331	    0.043531	    0.069861	   -0.021493	   -0.043034	   -0.064526	   -0.001633	   -0.020146	   -0.021779	    0.104145	    0.107471	    0.211616	    0.090575	    0.109458	    0.200032	   -0.020346	   -0.070574	   -0.090920	    0.007589	   -0.028997	   -0.021408	    0.091424	    0.089127	    0.180551	    0.057840	    0.111894	    0.169734	   -0.037312	   -0.026294	   -0.063607	    0.023401	    0.035675	    0.059076	    0.198245	    0.219216	    0.417462	   -0.012628	   -0.023124	   -0.035752	   -0.000716	   -0.015752	   -0.016468	    0.005502	   -0.001355	    0.004147	    0.072734	    0.172774	    0.245507	    0.042091	    0.099265	    0.141356	   -0.015266	    0.026597	    0.011331	    0.151327	    0.128365	    0.279692	    0.047552	    0.020304	    0.067855	   -0.043182	   -0.114955	   -0.158137
     2.550	0	0	    0	    0.036934	    0.018787	    0.055721	    0.018771	    0.021323	    0.040094	   -0.006733	   -0.026506	   -0.033240	   -0.011308	   -0.027077	   -0.038385	    0.101388	    0.125111	    0.226499	    0.077789	    0.127231	    0.205020	    0.040198	   -0.041829	   -0.001631	    0.006497	   -0.030828	   -0.024331	    0.035575	    0.067790	    0.103365	    0.042428	    0.063241	    0.105669	   -0.029017	   -0.039442	   -0.068459	   -0.004282	    0.028728	    0.024445	    0.163457	    0.208535	    0.371992	    0.017793	   -0.026459	   -0.008667	    0.030050	    0.012656	    0.042706	   -0.023358	   -0.019955	   -0.043313	    0.074456	    0.119778	    0.194234	    0.003129	    0.037955	    0.041084	   -0.027876	   -0.005922	   -0.033798	    0.109168	    0.132135	    0.241304	    0.027559	    0.006448	    0.034007	   -0.020707	   -0.051351	   -0.072058
     2.625	0	0	    0	    0.022767	    0.030236	    0.053003	    0.013910	    0.017653	    0.031563	    0.005579	   -0.017784	   -0.012205	   -0.004530	   -0.028679	   -0.033209	    0.036989	    0.070782	    0.107771	    0.043913	    0.070015	    0.113928	    0.024095	    0.024376	    0.048471	    0.008284	   -0.028267	   -0.019983	   -0.024576	    0.007630	   -0.016945	    0.017815	   -0.002199	    0.015616	   -0.011253	   -0.025974	   -0.037228	   -0.006705	   -0.008182	   -0.014887	    0.138050	    0.117336	    0.255385	    0.022298	   -0.003819	    0.018479	    0.023440	    0.017302	    0.040742	   -0.076104	   -0.065182	   -0.141286	   -0.026097	    0.047524	    0.021427	   -0.019662	   -0.040317	   -0.059979	   -0.024553	   -0.022560	   -0.047113	    0.086964	    0.052695	    0.139659	    0.042294	    0.009356	    0.051650	   -0.022651	   -0.017802	   -0.040453
     2.700	0	0	    0	    0.034089	    0.018079	    0.052168	    0.018772	    0.016517	    0.035288	   -0.002265	   -0.004465	   -0.006729	    0.000791	   -0.015550	   -0.014759	    0.051823	    0.028261	    0.080084	    0.050490	    0.059515	    0.110005	    0.020260	    0.011496	    0.031756	    0.008227	   -0.024522	   -0.016295	   -0.024393	   -0.043372	   -0.067765	    0.034422	   -0.070321	   -0.035900	   -0.023457	   -0.016131	   -0.039587	   -0.002903	    0.004732	    0.001829	    0.143777	    0.124523	    0.268300	    0.022043	   -0.003073	    0.018970	    0.025373	    0.010349	    0.035722	   -0.080297	   -0.116033	   -0.196331	   -0.019603	   -0.095263	   -0.114866	   -0.013402	   -0.114554	   -0.127956	   -0.029574	   -0.022655	   -0.052229	    0.085362	    0.069004	    0.154365	    0.041443	    0.025334	    0.066777	   -0.053318	   -0.047003	   -0.100321
     2.775	0	0	    0	    0.016648	    0.033783	    0.050431	    0.024229	    0.019344	    0.043573	   -0.032618	   -0.020966	   -0.053584	   -0.007534	   -0.017096	   -0.024630	    0.057686	    0.033552	    0.091238	    0.068496	    0.044876	    0.113372	   -0.006023	   -0.026040	   -0.032063	   -0.014965	   -0.022521	   -0.037486	    0.008230	   -0.038371	   -0.030141	    0.056957	   -0.065171	   -0.008214	   -0.039158	   -0.035774	   -0.074932	    0.007363	    0.015880	    0.023243	    0.174152	    0.130206	    0.304359	   -0.001924	   -0.001205	   -0.003129	   -0.047927	    0.044827	   -0.003099	   -0.058999	   -0.118628	   -0.177627	   -0.007089	   -0.082998	   -0.090087	   -0.010217	   -0.109537	   -0.119754	   -0.025621	   -0.013046	   -0.038666	    0.102089	    0.081431	    0.183520	    0.049366	    0.023314	    0.072680	   -0.074778	   -0.091226	   -0.166004
     2.850	0	0	    0	    0.020250	    0.002018	    0.022268	    0.033566	    0.031904	    0.065469	   -0.040675	   -0.031883	   -0.072559	   -0.012689	   -0.024881	   -0.037570	    0.079036	    0.053326	    0.132362	    0.085447	    0.074185	    0.159632	   -0.036074	   -0.040235	   -0.076310	   -0.017753	   -0.037301	   -0.055054	    0.051894	    0.000940	    0.052834	    0.095275	    0.044078	    0.139354	   -0.035645	   -0.028849	   -0.064494	    0.027854	    0.036914	    0.064768	    0.192838	    0.193431	    0.386269	   -0.004732	   -0.017565	   -0.022296	   -0.031647	    0.010469	   -0.021179	   -0.021693	   -0.093854	   -0.115546	    0.053546	    0.021669	    0.075215	    0.039265	    0.034358	    0.073623	   -0.017217	    0.012886	   -0.004331	    0.110368	    0.121449	    0.231817	    0.045615	    0.034959	    0.080574	   -0.095974	   -0.097654	   -0.193628
     2.925	0	0	    0	    0.011064	    0.019805	    0.030870	    0.034065	    0.037869	    0.071934	   -0.042661	   -0.037019	   -0.079680	   -0.007481	   -0.026742	   -0.034223	    0.091582	    0.079279	    0.170861	    0.080538	    0.102059	    0.182597	   -0.048587	   -0.058561	   -0.107148	   -0.009113	   -0.043735	   -0.052848	    0.061131	    0.034517	    0.095648	    0.069304	    0.104464	    0.173769	   -0.034228	   -0.025139	   -0.059367	    0.024882	    0.056307	    0.081188	    0.200001	    0.188847	    0.388848	   -0.005944	   -0.028490	   -0.034434	   -0.014718	   -0.017845	   -0.032563	   -0.023210	   -0.055086	   -0.078296	    0.044684	    0.114747	    0.159431	    0.035548	    0.085798	    0.121346	   -0.008721	    0.026881	    0.018160	    0.137945	    0.126549	    0.264494	    0.045625	    0.018531	    0.064156	   -0.081257	   -0.122640	   -0.203897
     3.000	0	0	    0	    0.032206	    0.010808	    0.043014	    0.043652	    0.038443	    0.082095	   -0.039856	   -0.034955	   -0.074811	   -0.002164	   -0.022513	   -0.024677	    0.103315	    0.094331	    0.197646	    0.094604	    0.108143	    0.202747	   -0.054514	   -0.060939	   -0.115453	    0.002899	   -0.042465	   -0.039566	    0.072106	    0.053484	    0.125589	    0.068898	    0.105631	    0.174529	   -0.029626	   -0.024273	   -0.053899	    0.023266	    0.049063	    0.072329	    0.210589	    0.196903	    0.407492	   -0.007700	   -0.025468	   -0.033168	   -0.016929	   -0.012537	   -0.029466	   -0.012861	   -0.040630	   -0.053491	    0.067226	    0.109617	    0.176843	    0.034405	    0.094542	    0.128947	   -0.001362	    0.030105	    0.028742	    0.149142	    0.130172	    0.279315	    0.055114	    0.015925	    0.071038	   -0.082543	   -0.112781	   -0.195324
     3.075	0	0	    0	    0.037339	    0.017180	    0.054519	    0.046389	    0.046380	    0.092769	   -0.001119	   -0.044335	   -0.045454	    0.002297	   -0.018056	   -0.015759	    0.108025	    0.105802	    0.213828	    0.104690	    0.107769	    0.212459	    0.014058	   -0.083455	   -0.069397	    0.005727	   -0.026269	   -0.020543	    0.080534	    0.062893	    0.143427	    0.093268	    0.093069	    0.186337	   -0.036085	   -0.021899	   -0.057985	    0.025615	    0.048746	    0.074361	    0.207803	    0.211215	    0.419017	    0.007525	   -0.039207	   -0.031682	    0.010533	    0.006199	    0.016732	   -0.007322	   -0.038884	   -0.046206	    0.086303	    0.102222	    0.188525	    0.052556	    0.096165	    0.148721	   -0.019928	    0.030659	    0.010731	    0.149011	    0.137636	    0.286647	    0.037986	    0.021822	    0.059808	   -0.055245	   -0.099303	   -0.154547
     3.150	0	0	    0	    0.046784	    0.006348	    0.053132	    0.023837	    0.034701	    0.058538	    0.005084	   -0.010774	   -0.005690	   -0.000998	   -0.027607	   -0.028605	    0.033665	    0.074347	    0.108012	    0.049144	    0.066627	    0.115772	    0.033068	    0.017071	    0.050139	    0.010161	   -0.033048	   -0.022887	   -0.032621	    0.022328	   -0.010293	    0.010643	    0.058715	    0.069358	   -0.010433	   -0.033213	   -0.043646	   -0.005184	    0.023538	    0.018353	    0.111965	    0.118464	    0.230429	    0.038219	   -0.013799	    0.024419	    0.039046	    0.018457	    0.057503	   -0.087594	   -0.064951	   -0.152545	   -0.025949	    0.084184	    0.058235	   -0.041365	    0.015352	   -0.026012	   -0.005634	   -0.009853	   -0.015486	    0.072948	    0.077196	    0.150143	    0.057937	   -0.004642	    0.053295	   -0.001642	   -0.060127	   -0.061768
     3.225	0	0	    0	    0.048537	    0.017550	    0.066087	    0.023780	    0.024583	    0.048363	    0.014456	   -0.002002	    0.012454	    0.010401	   -0.010761	   -0.000360	    0.028540	    0.007698	    0.036238	    0.054424	    0.039525	    0.093949	    0.055621	    0.020800	    0.076421	    0.014109	   -0.026231	   -0.012122	   -0.035058	   -0.091023	   -0.126081	    0.001075	   -0.140154	   -0.139079	    0.000244	   -0.015980	   -0.015736	    0.003218	    0.011925	    0.015143	    0.133884	    0.088930	    0.222815	    0.034799	    0.006721	    0.041520	    0.029505	    0.025270	    0.054775	   -0.088052	   -0.171564	   -0.259617	   -0.088587	   -0.172146	   -0.260733	   -0.048097	   -0.195189	   -0.243286	    0.000092	   -0.008745	   -0.008654	    0.098257	    0.072700	    0.170958	    0.071616	    0.031431	    0.103046	   -0.018931	    0.000805	   -0.018126
     3.300	0	0	    0	    0.043183	    0.032092	    0.075275	    0.031959	    0.024282	    0.056241	    0.014606	    0.007514	    0.022120	    0.018342	   -0.002008	    0.016334	    0.032559	    0.003455	    0.036014	    0.045504	    0.038174	    0.083677	    0.035155	    0.031634	    0.066789	    0.016928	   -0.019421	   -0.002492	   -0.034736	   -0.107837	   -0.142573	   -0.025216	   -0.219043	   -0.244259	    0.010612	   -0.008095	    0.002517	    0.005087	    0.019312	    0.024399	    0.127297	    0.087947	    0.215244	    0.042429	    0.001262	    0.043691	    0.036823	    0.012138	    0.048961	   -0.092642	   -0.187870	   -0.280512	   -0.115615	   -0.324723	   -0.440338	   -0.061723	   -0.299656	   -0.361379	    0.004322	   -0.008606	   -0.004284	    0.097287	    0.079875	    0.177162	    0.066482	    0.040921	    0.107403	    0.015682	   -0.013593	    0.002089
     3.375	0	0	    0	    0.022101	    0.059780	    0.081881	    0.037973	    0.027019	    0.064992	    0.018370	   -0.000513	    0.017856	    0.024479	    0.008002	    0.032482	    0.037643	    0.003257	    0.040901	    0.064941	    0.019153	    0.084094	    0.082590	   -0.008322	    0.074267	    0.012490	   -0.004520	    0.007969	   -0.018753	   -0.106502	   -0.125255	    0.003339	   -0.268929	   -0.265591	   -0.002589	   -0.004513	   -0.007102	    0.012595	    0.023511	    0.036107	    0.138318	    0.087864	    0.226182	    0.034866	    0.005423	    0.040289	    0.029463	    0.018242	    0.047705	   -0.089493	   -0.183644	   -0.273138	   -0.106724	   -0.391762	   -0.498485	   -0.070940	   -0.322755	   -0.393695	   -0.005610	   -0.004364	   -0.009973	    0.094968	    0.084008	    0.178976	    0.065290	    0.045162	    0.110452	   -0.017770	   -0.008586	   -0.026355
     3.450	0	0	    0	    0.038009	    0.027350	    0.065360	    0.038839	    0.030075	    0.068914	   -0.010705	   -0.005004	   -0.015709	    0.014042	    0.003925	    0.017968	    0.038546	    0.004067	    0.042614	    0.067370	    0.027951	    0.095321	    0.012550	    0.007385	    0.019935	    0.008459	   -0.021123	   -0.012664	    0.000121	   -0.100999	   -0.100877	    0.012920	   -0.246580	   -0.233660	   -0.030243	   -0.027056	   -0.057299	    0.019272	    0.029753	    0.049025	    0.162005	    0.090874	    0.252879	    0.021271	    0.006471	    0.027742	   -0.037323	    0.064513	    0.027190	   -0.067112	   -0.185329	   -0.252441	   -0.079759	   -0.376965	   -0.456723	   -0.075118	   -0.309233	   -0.384352	   -0.013196	   -0.002380	   -0.015576	    0.105922	    0.090565	    0.196487	    0.081730	    0.040923	    0.122653	   -0.056498	   -0.082159	   -0.138657
     3.525	0	0	    0	    0.016722	    0.029299	    0.046021	    0.043712	    0.036430	    0.080142	   -0.029209	   -0.022668	   -0.051877	    0.002700	   -0.012505	   -0.009805	    0.046158	    0.019785	    0.065944	    0.077888	    0.046659	    0.124547	   -0.025929	   -0.029398	   -0.055327	   -0.010315	   -0.014352	   -0.024667	    0.035942	   -0.069483	   -0.033541	    0.036612	   -0.192553	   -0.155941	   -0.032281	   -0.033492	   -0.065773	    0.030326	    0.046658	    0.076983	    0.196145	    0.129140	    0.325285	    0.009963	   -0.009515	    0.000447	   -0.014409	    0.008186	   -0.006222	   -0.049741	   -0.168982	   -0.218723	   -0.049519	   -0.323047	   -0.372565	   -0.035514	   -0.251101	   -0.286615	   -0.008622	    0.014717	    0.006094	    0.115600	    0.109686	    0.225286	    0.077085	    0.039681	    0.116767	   -0.087300	   -0.091995	   -0.179295
     3.600	0	0	    0	    0.028782	    0.021564	    0.050346	    0.033975	    0.045258	    0.079232	   -0.012405	   -0.032179	   -0.044583	   -0.002527	   -0.013961	   -0.016488	    0.065399	    0.046208	    0.111606	    0.077840	    0.061147	    0.138987	    0.005408	   -0.053768	   -0.048360	   -0.004619	   -0.025504	   -0.030123	    0.029986	   -0.053679	   -0.023693	    0.006913	   -0.092307	   -0.085394	   -0.037969	   -0.031903	   -0.069872	    0.029966	    0.065553	    0.095519	    0.163120	    0.154140	    0.317260	    0.004864	   -0.025155	   -0.020291	   -0.014718	   -0.019372	   -0.034089	   -0.054464	   -0.159014	   -0.213477	   -0.034461	   -0.214542	   -0.249003	   -0.045522	   -0.172725	   -0.218247	   -0.020061	    0.013531	   -0.006530	    0.111458	    0.126546	    0.238004	    0.057341	    0.023539	    0.080881	   -0.113003	   -0.106692	   -0.219696
     3.675	0	0	    0	    0.031149	    0.008940	    0.040089	    0.033474	    0.030336	    0.063810	    0.011256	   -0.012803	   -0.001548	    0.006143	   -0.025212	   -0.019068	    0.021419	    0.024002	    0.045422	    0.041176	    0.044228	    0.085405	    0.054988	   -0.018907	    0.036080	    0.000912	   -0.031717	   -0.030805	   -0.023712	   -0.089902	   -0.113614	   -0.010402	   -0.156945	   -0.167348	   -0.003254	   -0.027278	   -0.030532	    0.013397	    0.044461	    0.057858	    0.123804	    0.078032	    0.201836	    0.037416	   -0.014407	    0.023009	   -0.011262	   -0.011503	   -0.022765	   -0.071614	   -0.180274	   -0.251888	   -0.079104	   -0.240543	   -0.319647	   -0.049937	   -0.217331	   -0.267269	   -0.001358	   -0.000850	   -0.002208	    0.095114	    0.088416	    0.183530	    0.078958	    0.013281	    0.092239	   -0.072523	   -0.122378	   -0.194901
     3.750	0	0	    0	    0.041564	    0.020622	    0.062186	    0.034373	    0.027365	    0.061738	    0.013201	    0.001650	    0.014851	    0.018887	    0.000968	    0.019855	    0.017314	   -0.008517	    0.008797	    0.036120	    0.026923	    0.063043	    0.049219	    0.023367	    0.072585	    0.016934	   -0.016952	   -0.000018	   -0.022752	   -0.104887	   -0.127639	   -0.009395	   -0.235467	   -0.244862	    0.000410	   -0.010030	   -0.009621	    0.012803	    0.037240	    0.050042	    0.108944	    0.073934	    0.182877	    0.039010	    0.022343	    0.061353	    0.028810	    0.029239	    0.058049	   -0.082491	   -0.177360	   -0.259852	   -0.105237	   -0.327158	   -0.432395	   -0.060894	   -0.280127	   -0.341021	    0.001882	    0.001767	    0.003649	    0.085427	    0.087010	    0.172437	    0.058894	    0.039882	    0.098776	   -0.031866	   -0.068618	   -0.100484
     3.825	0	0	    0	    0.043672	    0.024610	    0.068282	    0.028414	    0.030865	    0.059279	    0.015274	    0.002867	    0.018142	    0.023675	    0.004960	    0.028635	    0.006025	   -0.009651	   -0.003626	    0.015864	    0.035616	    0.051480	    0.069285	    0.023625	    0.092910	    0.015869	   -0.010069	    0.005800	   -0.033352	   -0.099886	   -0.133237	   -0.045588	   -0.261953	   -0.307542	    0.007274	   -0.005082	    0.002192	    0.011626	    0.036877	    0.048503	    0.090609	    0.069209	    0.159818	    0.043514	    0.018675	    0.062189	    0.039087	    0.020959	    0.060046	   -0.099807	   -0.179551	   -0.279359	   -0.137498	   -0.366878	   -0.504376	   -0.103683	   -0.324028	   -0.427711	    0.003014	   -0.001087	    0.001927	    0.084248	    0.085705	    0.169953	    0.054180	    0.039696	    0.093876	    0.007282	   -0.032212	   -0.024930
     3.900	0	0	    0	    0.046728	    0.020828	    0.067556	    0.027268	    0.033044	    0.060313	    0.006039	    0.016459	    0.022498	    0.025549	    0.014539	    0.040088	    0.012252	   -0.022625	   -0.010373	    0.019480	    0.023103	    0.042583	    0.033172	    0.050771	    0.083943	    0.022432	   -0.001985	    0.020447	   -0.033585	   -0.113008	   -0.146593	   -0.057170	   -0.331063	   -0.388233	   -0.004864	   -0.000470	   -0.005333	    0.015689	    0.035457	    0.051146	    0.087045	    0.055247	    0.142291	    0.035484	    0.022339	    0.057824	    0.038446	    0.018452	    0.056898	   -0.110633	   -0.189546	   -0.300179	   -0.174207	   -0.474664	   -0.648870	   -0.118563	   -0.387564	   -0.506127	   -0.005427	   -0.000176	   -0.005603	    0.085046	    0.078616	    0.163662	    0.048332	    0.041513	    0.089845	    0.006979	   -0.011267	   -0.004287
     3.975	0	0	    0	    0.019765	    0.022327	    0.042092	    0.032769	    0.032937	    0.065706	   -0.039798	    0.000767	   -0.039031	   -0.001072	    0.006931	    0.005859	    0.040353	   -0.015780	    0.024573	    0.051798	    0.023789	    0.075587	    0.005790	    0.020844	    0.026634	    0.010835	    0.002758	    0.013593	    0.002810	   -0.106604	   -0.103794	   -0.038745	   -0.323923	   -0.362668	   -0.046838	   -0.032254	   -0.079092	    0.022478	    0.044837	    0.067316	    0.136876	    0.065005	    0.201881	    0.007572	    0.013328	    0.020900	    0.027461	    0.023116	    0.050577	   -0.101965	   -0.189970	   -0.291936	   -0.142301	   -0.484939	   -0.627240	   -0.132065	   -0.382511	   -0.514576	   -0.029526	    0.001593	   -0.027933	    0.084770	    0.081841	    0.166611	    0.033016	    0.040305	    0.073321	   -0.029348	   -0.007464	   -0.036811
     4.050	0	0	    0	    0.008675	   -0.004279	    0.004396	    0.037487	    0.046915	    0.084402	   -0.052523	   -0.028468	   -0.080991	   -0.014313	   -0.023115	   -0.037428	    0.057723	    0.006963	    0.064686	    0.065591	    0.042356	    0.107946	   -0.043403	   -0.034676	   -0.078079	   -0.000425	   -0.025661	   -0.026086	    0.033804	   -0.063316	   -0.029511	    0.181165	   -0.148961	    0.032204	   -0.045179	   -0.037787	   -0.082966	    0.032821	    0.061239	    0.094061	    0.182761	    0.115788	    0.298549	   -0.005193	    0.005618	    0.000424	   -0.035040	    0.069713	    0.034672	   -0.074845	   -0.173903	   -0.248747	    0.134771	   -0.456538	   -0.321766	    0.067195	   -0.037493	    0.029702	   -0.024062	    0.013723	   -0.010339	    0.103822	    0.113877	    0.217699	    0.056056	    0.033625	    0.089681	   -0.080935	   -0.049931	   -0.130865
     4.125	0	0	    0	    0.019420	   -0.005016	    0.014404	    0.041717	    0.055605	    0.097322	   -0.048723	   -0.035553	   -0.084276	   -0.018925	   -0.026465	   -0.045390	    0.086309	    0.063614	    0.149923	    0.072278	    0.100974	    0.173251	   -0.073091	   -0.048201	   -0.121292	   -0.013303	   -0.017264	   -0.030568	    0.037594	    0.005230	    0.042825	    0.005123	    0.112912	    0.118034	   -0.038207	   -0.031419	   -0.069626	    0.042128	    0.077794	    0.119922	    0.191263	    0.173031	    0.364294	   -0.017595	   -0.012721	   -0.030316	   -0.041221	    0.022981	   -0.018240	   -0.087402	   -0.090911	   -0.178313	   -0.025127	    0.083105	    0.057978	    0.025456	    0.113645	    0.139100	   -0.009101	    0.030122	    0.021021	    0.136662	    0.135940	    0.272602	    0.050777	    0.026590	    0.077368	   -0.084438	   -0.086259	   -0.170697
     4.200	0	0	    0	    0.016078	    0.019658	    0.035735	    0.057048	    0.052294	    0.109342	   -0.036721	   -0.033649	   -0.070371	   -0.017781	   -0.016675	   -0.034455	    0.095723	    0.116930	    0.212652	    0.108150	    0.111070	    0.219220	   -0.047322	   -0.069115	   -0.116437	   -0.011063	   -0.022442	   -0.033505	    0.061075	    0.007222	    0.068297	    0.013292	    0.033467	    0.046759	   -0.033607	   -0.028051	   -0.061657	    0.033465	    0.081012	    0.114477	    0.205970	    0.210219	    0.416189	   -0.005183	   -0.027828	   -0.033011	   -0.016449	   -0.010599	   -0.027048	   -0.054528	   -0.109325	   -0.163853	   -0.009145	   -0.007720	   -0.016865	    0.032012	    0.068947	    0.100960	   -0.002483	    0.032485	    0.030002	    0.155285	    0.146691	    0.301976	    0.061656	    0.021626	    0.083282	   -0.088807	   -0.102008	   -0.190815
     4.275	0	0	    0	    0.027807	    0.027061	    0.054869	    0.061802	    0.054668	    0.116470	   -0.028753	   -0.035408	   -0.064161	   -0.009294	   -0.017260	   -0.026554	    0.104822	    0.134890	    0.239712	    0.106774	    0.135388	    0.242161	   -0.048129	   -0.066459	   -0.114588	   -0.002098	   -0.027527	   -0.029625	    0.071699	    0.020529	    0.092228	    0.032800	    0.022708	    0.055508	   -0.035827	   -0.028367	   -0.064194	    0.034222	    0.068190	    0.102412	    0.212315	    0.235865	    0.448179	   -0.008443	   -0.031189	   -0.039632	   -0.005726	   -0.027722	   -0.033448	   -0.047225	   -0.103391	   -0.150616	    0.000795	   -0.014638	   -0.013843	    0.036002	    0.069381	    0.105382	    0.000548	    0.034145	    0.034694	    0.161623	    0.153121	    0.314744	    0.063447	    0.028196	    0.091643	   -0.075900	   -0.125881	   -0.201782
     4.350	0	0	    0	    0.043751	    0.012339	    0.056091	    0.044768	    0.049427	    0.094195	   -0.002304	   -0.023957	   -0.026261	   -0.014833	   -0.012976	   -0.027808	    0.115270	    0.135723	    0.250994	    0.112261	    0.126512	    0.238773	    0.021136	   -0.081873	   -0.060737	   -0.000111	   -0.022875	   -0.022987	    0.028920	    0.027141	    0.056062	    0.141336	    0.025262	    0.166598	   -0.041962	   -0.037142	   -0.079104	    0.020692	    0.070316	    0.091008	    0.183736	    0.228967	    0.412702	    0.007180	   -0.046867	   -0.039687	   -0.002468	   -0.013078	   -0.015546	   -0.067448	   -0.106400	   -0.173848	    0.100201	   -0.060007	    0.040194	   -0.003803	    0.150067	    0.146264	   -0.015112	    0.018991	    0.003879	    0.149717	    0.160050	    0.309767	    0.054338	    0.014201	    0.068539	   -0.066503	   -0.125684	   -0.192186
     4.425	0	0	    0	    0.046867	    0.009516	    0.056383	    0.035767	    0.030332	    0.066099	    0.020510	   -0.018149	    0.002361	   -0.006403	   -0.030460	   -0.036863	    0.034702	    0.117618	    0.152321	    0.079851	    0.067735	    0.147586	    0.096689	   -0.061353	    0.035335	    0.011508	   -0.034370	   -0.022861	   -0.019409	   -0.048369	   -0.067779	    0.047668	    0.050024	    0.097692	   -0.013478	   -0.031599	   -0.045077	    0.004414	    0.033168	    0.037582	    0.148320	    0.128794	    0.277114	    0.054226	   -0.014727	    0.039500	    0.036250	    0.017317	    0.053566	   -0.091722	   -0.155741	   -0.247463	   -0.024921	    0.004965	   -0.019957	   -0.015854	    0.014469	   -0.001385	   -0.002913	    0.001775	   -0.001138	    0.106147	    0.077529	    0.183677	    0.075552	    0.004156	    0.079708	   -0.018420	   -0.065414	   -0.083833
     4.500	0	0	    0	    0.023484	    0.042444	    0.065928	    0.041496	    0.033434	    0.074930	   -0.000636	    0.008911	    0.008275	   -0.000193	   -0.011673	   -0.011867	    0.048174	    0.033482	    0.081656	    0.080597	    0.056885	    0.137483	    0.043500	    0.020499	    0.063998	    0.016765	   -0.017101	   -0.000336	   -0.000192	   -0.096444	   -0.096636	    0.065149	   -0.059434	    0.005715	   -0.023437	   -0.021471	   -0.044908	    0.013491	    0.035554	    0.049045	    0.158139	    0.125752	    0.283891	    0.049822	    0.007602	    0.057425	    0.037573	    0.014977	    0.052550	   -0.086472	   -0.193267	   -0.279738	   -0.015746	   -0.160315	   -0.176061	    0.006334	   -0.115069	   -0.108735	   -0.005888	    0.009973	    0.004084	    0.112815	    0.105461	    0.218275	    0.072916	    0.040812	    0.113727	    0.005373	   -0.021391	   -0.016019
     4.575	0	0	    0	    0.029314	    0.020843	    0.050157	    0.048725	    0.044922	    0.093647	   -0.028677	   -0.010061	   -0.038738	   -0.010540	   -0.016599	   -0.027139	    0.053176	    0.033988	    0.087163	    0.061782	    0.054851	    0.116632	   -0.033139	    0.023222	   -0.009917	    0.013243	   -0.020230	   -0.006987	    0.041606	   -0.083513	   -0.041906	    0.064524	   -0.042490	    0.022034	   -0.035329	   -0.037933	   -0.073262	    0.030285	    0.049052	    0.079337	    0.175773	    0.124862	    0.300635	    0.014333	    0.003747	    0.018080	    0.024787	    0.018549	    0.043336	   -0.072859	   -0.186272	   -0.259130	    0.013696	   -0.172413	   -0.158717	   -0.004468	   -0.114448	   -0.118916	   -0.009645	    0.021179	    0.011534	    0.117759	    0.120535	    0.238295	    0.063792	    0.052293	    0.116085	   -0.028021	   -0.021654	   -0.049675
     4.650	0	0	    0	    0.010275	    0.008576	    0.018850	    0.064513	    0.055884	    0.120397	   -0.026249	   -0.029612	   -0.055862	   -0.020709	   -0.020018	   -0.040727	    0.080171	    0.059111	    0.139282	    0.090785	    0.065914	    0.156698	   -0.055786	   -0.054459	   -0.110245	    0.002918	   -0.013711	   -0.010793	    0.071282	   -0.037083	    0.034199	    0.107137	    0.091224	    0.198360	   -0.029974	   -0.030456	   -0.060429	    0.048089	    0.079532	    0.127621	    0.214779	    0.182985	    0.397764	    0.004653	   -0.017962	   -0.013309	    0.011091	    0.021978	    0.033069	   -0.050389	   -0.163300	   -0.213690	    0.079961	   -0.091794	   -0.011833	    0.094690	    0.041559	    0.136250	    0.003676	    0.036364	    0.040040	    0.119098	    0.143516	    0.262614	    0.083660	    0.064177	    0.147836	   -0.043040	   -0.039849	   -0.082889
     4.725	0	0	    0	    0.004369	    0.017035	    0.021404	    0.064178	    0.067803	    0.131981	   -0.034739	   -0.023992	   -0.058731	   -0.020215	   -0.019018	   -0.039233	    0.086672	    0.108075	    0.194747	    0.084556	    0.096306	    0.180861	   -0.090923	   -0.070646	   -0.161569	    0.005863	   -0.008818	   -0.002955	    0.053652	   -0.009747	    0.043906	   -0.025701	    0.202239	    0.176538	   -0.026454	   -0.023834	   -0.050287	    0.055059	    0.095211	    0.150270	    0.209442	    0.204437	    0.413879	   -0.026516	   -0.008291	   -0.034807	   -0.059780	    0.028484	   -0.031296	   -0.077482	   -0.151784	   -0.229265	   -0.004119	    0.088543	    0.084425	    0.039468	    0.127970	    0.167438	    0.014921	    0.040774	    0.055695	    0.157430	    0.145659	    0.303089	    0.068849	    0.040667	    0.109515	   -0.052200	   -0.083024	   -0.135224
     4.800	0	0	    0	    0.028927	    0.003405	    0.032333	    0.066106	    0.064066	    0.130172	   -0.029834	   -0.032655	   -0.062489	   -0.013466	   -0.019021	   -0.032487	    0.098258	    0.115724	    0.213982	    0.103544	    0.095143	    0.198687	   -0.079817	   -0.104327	   -0.184144	    0.004601	   -0.023590	   -0.018989	    0.057806	   -0.016611	    0.041194	   -0.000761	    0.012559	    0.011798	   -0.029341	   -0.018434	   -0.047774	    0.045509	    0.084965	    0.130474	    0.220632	    0.221830	    0.442462	   -0.010032	   -0.043449	   -0.053481	   -0.032437	   -0.023665	   -0.056102	   -0.090556	   -0.162970	   -0.253526	   -0.044931	   -0.048920	   -0.093851	    0.009987	    0.057119	    0.067106	    0.011040	    0.036869	    0.047909	    0.158618	    0.146203	    0.304821	    0.071243	    0.029394	    0.100637	   -0.089338	   -0.087658	   -0.176996
     4.875	0	0	    0	    0.019489	    0.009125	    0.028614	    0.058113	    0.062175	    0.120288	   -0.040947	   -0.026969	   -0.067916	   -0.018137	   -0.016224	   -0.034361	    0.100129	    0.132890	    0.233020	    0.095359	    0.114649	    0.210007	   -0.094249	   -0.087512	   -0.181762	   -0.001958	   -0.043258	   -0.045216	    0.045111	   -0.015713	    0.029397	    0.000876	   -0.032503	   -0.031626	   -0.033415	   -0.022090	   -0.055505	    0.038957	    0.069583	    0.108540	    0.225210	    0.239052	    0.464261	   -0.023619	   -0.041158	   -0.064777	   -0.034032	   -0.024487	   -0.058519	   -0.104445	   -0.170621	   -0.275066	   -0.051095	   -0.084982	   -0.136078	    0.019414	    0.028316	    0.047731	    0.009959	    0.031692	    0.041651	    0.164471	    0.140965	    0.305436	    0.069974	    0.028678	    0.098652	   -0.079112	   -0.117751	   -0.196862
     4.950	0	0	    0	    0.050097	   -0.001116	    0.048981	    0.026956	    0.054213	    0.081169	   -0.028871	   -0.013505	   -0.042376	   -0.022883	   -0.017127	   -0.040011	    0.113102	    0.132460	    0.245562	    0.075232	    0.136980	    0.212212	   -0.058199	   -0.033609	   -0.091808	   -0.006500	   -0.048945	   -0.055445	    0.008078	   -0.014359	   -0.006280	    0.113329	   -0.064428	    0.048901	   -0.044417	   -0.039184	   -0.083601	    0.026881	    0.068881	    0.095763	    0.183967	    0.235185	    0.419152	   -0.029238	   -0.047556	   -0.076794	   -0.019366	   -0.029636	   -0.049002	   -0.114159	   -0.175734	   -0.289894	    0.003766	   -0.115950	   -0.112184	    0.082192	    0.100281	    0.182474	   -0.009667	    0.023197	    0.013530	    0.160374	    0.150277	    0.310651	    0.050248	    0.020654	    0.070902	   -0.110408	   -0.127053	   -0.237461
     5.025	0	0	    0	    0.044314	    0.005138	    0.049452	    0.024409	    0.035133	    0.059542	    0.002564	   -0.017515	   -0.014950	   -0.016474	   -0.036044	   -0.052518	    0.087923	    0.136030	    0.223952	    0.082140	    0.135835	    0.217975	    0.034728	   -0.034612	    0.000116	   -0.010320	   -0.051957	   -0.062277	   -0.014609	   -0.037504	   -0.052113	    0.082816	    0.073757	    0.156573	   -0.012624	   -0.035758	   -0.048381	   -0.007323	    0.029224	    0.021902	    0.165751	    0.191135	    0.356886	    0.011056	   -0.034762	   -0.023705	   -0.015562	    0.007810	   -0.007752	   -0.104490	   -0.182919	   -0.287409	    0.014978	    0.061038	    0.076017	    0.022998	    0.047473	    0.070471	   -0.003211	    0.000749	   -0.002462	    0.091476	    0.120199	    0.211675	    0.049681	    0.008886	    0.058567	   -0.058381	   -0.118636	   -0.177017
     5.100	0	0	    0	    0.048491	    0.016280	    0.064772	    0.025047	    0.035270	    0.060317	    0.004812	    0.000516	    0.005327	   -0.002758	   -0.016295	   -0.019052	    0.069815	    0.082997	    0.152812	    0.068528	    0.096984	    0.165511	    0.031479	    0.004987	    0.036466	    0.004219	   -0.046842	   -0.042624	   -0.028596	   -0.066256	   -0.094852	    0.035203	    0.038348	    0.073550	   -0.015829	   -0.018841	   -0.034670	   -0.010813	    0.009688	   -0.001125	    0.174748	    0.172273	    0.347021	    0.020704	    0.007856	    0.028560	    0.000010	    0.035031	    0.035041	   -0.109583	   -0.187863	   -0.297446	   -0.023908	   -0.021008	   -0.044916	    0.009755	   -0.034809	   -0.025055	   -0.014647	   -0.004660	   -0.019307	    0.098548	    0.081665	    0.180213	    0.067093	    0.023876	    0.090969	   -0.050620	   -0.065096	   -0.115716
     5.175	0	0	    0	    0.035607	    0.033844	    0.069451	    0.035913	    0.040380	    0.076293	   -0.020373	   -0.003397	   -0.023771	   -0.012826	   -0.005247	   -0.018073	    0.068212	    0.071087	    0.139299	    0.056731	    0.089890	    0.146621	    0.004157	    0.023172	    0.027329	   -0.005089	   -0.033853	   -0.038942	   -0.004188	   -0.069761	   -0.073949	    0.064444	    0.010102	    0.074546	   -0.045452	   -0.024221	   -0.069674	   -0.004306	    0.018176	    0.013870	    0.169335	    0.174651	    0.343985	    0.017171	    0.010138	    0.027308	    0.032791	    0.014660	    0.047451	   -0.111398	   -0.182510	   -0.293908	    0.000033	   -0.080311	   -0.080278	   -0.007359	   -0.036969	   -0.044328	   -0.029103	    0.001405	   -0.027698	    0.094470	    0.095337	    0.189806	    0.052140	    0.047166	    0.099306	   -0.034667	   -0.051740	   -0.086407
     5.250	0	0	    0	   -0.009988	    0.023261	    0.013273	    0.038916	    0.057345	    0.096261	   -0.049871	   -0.016542	   -0.066413	   -0.026201	   -0.025329	   -0.051530	    0.062595	    0.060959	    0.123554	    0.038222	    0.071018	    0.109240	   -0.062215	    0.009761	   -0.052453	   -0.017309	   -0.034478	   -0.051787	    0.040333	   -0.043496	   -0.003163	    0.030371	    0.064081	    0.094452	   -0.044799	   -0.037338	   -0.082136	    0.017689	    0.034839	    0.052529	    0.177512	    0.170793	    0.348305	   -0.009659	   -0.006422	   -0.016082	    0.020168	    0.018171	    0.038339	   -0.096504	   -0.171015	   -0.267519	    0.002233	   -0.055040	   -0.052808	    0.009317	   -0.035178	   -0.025861	   -0.016496	    0.009582	   -0.006914	    0.093285	    0.109661	    0.202946	    0.034340	    0.049359	    0.083699	   -0.034738	   -0.037819	   -0.072557
     5.325	0	0	    0	    0.003152	   -0.000197	    0.002956	    0.056626	    0.065098	    0.121724	   -0.035228	   -0.023075	   -0.058302	   -0.030898	   -0.030944	   -0.061842	    0.067401	    0.068034	    0.135435	    0.075713	    0.051674	    0.127387	   -0.060708	   -0.054914	   -0.115623	   -0.001910	   -0.032063	   -0.033973	    0.075156	   -0.020336	    0.054820	    0.102961	    0.062812	    0.165773	   -0.040407	   -0.027883	   -0.068291	    0.034283	    0.066408	    0.100691	    0.209650	    0.178715	    0.388365	    0.005445	   -0.023673	   -0.018229	    0.005479	    0.011622	    0.017101	   -0.060766	   -0.164571	   -0.225338	    0.017073	   -0.024997	   -0.007924	    0.036834	    0.043553	    0.080387	   -0.001085	    0.028314	    0.027229	    0.101161	    0.123927	    0.225088	    0.084653	    0.050906	    0.135560	   -0.021834	   -0.031135	   -0.052969
     5.400	0	0	    0	    0.002989	    0.008827	    0.011816	    0.055595	    0.073555	    0.129150	   -0.035947	   -0.024666	   -0.060612	   -0.028600	   -0.025816	   -0.054416	    0.071824	    0.093682	    0.165506	    0.074932	    0.083110	    0.158042	   -0.087756	   -0.064142	   -0.151899	   -0.000504	   -0.021556	   -0.022060	    0.062250	   -0.003292	    0.058958	    0.067949	    0.144714	    0.212663	   -0.036126	   -0.025884	   -0.062010	    0.050547	    0.082046	    0.132592	    0.213453	    0.204701	    0.418154	    0.003264	   -0.020216	   -0.016953	   -0.002471	    0.009883	    0.007412	   -0.076866	   -0.151831	   -0.228697	    0.041528	    0.074124	    0.115651	    0.052941	    0.150182	    0.203123	    0.006061	    0.035158	    0.041220	    0.139843	    0.117051	    0.256894	    0.080887	    0.057285	    0.138173	   -0.042336	   -0.025694	   -0.068029
     5.475	0	0	    0	    0.017726	    0.008266	    0.025992	    0.057061	    0.066814	    0.123875	   -0.035917	   -0.025448	   -0.061365	   -0.021104	   -0.022555	   -0.043660	    0.088603	    0.106762	    0.195365	    0.083724	    0.099896	    0.183620	   -0.084973	   -0.070294	   -0.155266	    0.001158	   -0.030466	   -0.029308	    0.062853	   -0.012649	    0.050204	    0.015668	    0.088395	    0.104063	   -0.039680	   -0.027196	   -0.066876	    0.039684	    0.086363	    0.126047	    0.231130	    0.217205	    0.448335	   -0.012811	   -0.017011	   -0.029822	   -0.049932	    0.047444	   -0.002489	   -0.070410	   -0.171221	   -0.241631	   -0.003135	   -0.006909	   -0.010044	    0.022168	    0.110885	    0.133053	    0.001752	    0.032398	    0.034150	    0.166693	    0.141152	    0.307844	    0.076968	    0.032561	    0.109529	   -0.039174	   -0.064049	   -0.103222
     5.550	0	0	    0	    0.008096	    0.032876	    0.040972	    0.049275	    0.065066	    0.114341	   -0.041356	   -0.026805	   -0.068161	   -0.023897	   -0.019032	   -0.042929	    0.089463	    0.128051	    0.217514	    0.098201	    0.100904	    0.199105	   -0.079561	   -0.076826	   -0.156387	   -0.001179	   -0.034971	   -0.036150	    0.051281	   -0.015944	    0.035337	    0.003029	    0.023702	    0.026731	   -0.042351	   -0.031145	   -0.073496	    0.033495	    0.070289	    0.103784	    0.235773	    0.232859	    0.468632	   -0.026023	   -0.026473	   -0.052496	   -0.072306	    0.053508	   -0.018798	   -0.088050	   -0.174470	   -0.262520	   -0.020562	   -0.060834	   -0.081396	    0.021086	    0.071946	    0.093032	   -0.001505	    0.027317	    0.025812	    0.171485	    0.143952	    0.315437	    0.074444	    0.030863	    0.105308	   -0.051033	   -0.089234	   -0.140266
     5.625	0	0	    0	    0.039589	   -0.004897	    0.034692	    0.023401	    0.052868	    0.076270	   -0.025431	   -0.028408	   -0.053839	   -0.026546	   -0.023026	   -0.049572	    0.107764	    0.127412	    0.235176	    0.089858	    0.111278	    0.201136	   -0.024663	   -0.081290	   -0.105953	    0.006488	   -0.055508	   -0.049020	    0.021174	   -0.010420	    0.010754	    0.037716	   -0.020785	    0.016931	   -0.054787	   -0.041000	   -0.095787	    0.026266	    0.062854	    0.089120	    0.200790	    0.244291	    0.445081	   -0.023649	   -0.045945	   -0.069594	   -0.057168	    0.041021	   -0.016146	   -0.093325	   -0.180455	   -0.273780	   -0.018878	   -0.072225	   -0.091103	    0.085815	    0.063140	    0.148955	   -0.014739	    0.018941	    0.004202	    0.175081	    0.147250	    0.322331	    0.058226	    0.025948	    0.084174	   -0.069779	   -0.103909	   -0.173687
     5.700	0	0	    0	    0.042957	    0.004665	    0.047622	    0.015017	    0.037845	    0.052861	    0.003614	   -0.026712	   -0.023099	   -0.024841	   -0.035816	   -0.060657	    0.100600	    0.132707	    0.233308	    0.075528	    0.139354	    0.214882	    0.023887	   -0.028221	   -0.004333	   -0.001319	   -0.058506	   -0.059825	   -0.013577	   -0.036237	   -0.049814	    0.044512	    0.112489	    0.157001	   -0.018646	   -0.045175	   -0.063821	   -0.016357	    0.033176	    0.016819	    0.158510	    0.224258	    0.382768	    0.001599	   -0.024502	   -0.022903	   -0.040130	    0.032131	   -0.007999	   -0.099022	   -0.184193	   -0.283215	    0.038099	    0.078425	    0.116524	    0.020442	    0.062374	    0.082817	   -0.008552	    0.001639	   -0.006913	    0.098205	    0.150031	    0.248237	    0.048214	    0.018262	    0.066476	   -0.064431	   -0.109282	   -0.173712
     5.775	0	0	    0	    0.045765	    0.019729	    0.065494	    0.028309	    0.031241	    0.059549	    0.014028	   -0.008052	    0.005977	   -0.011835	   -0.022271	   -0.034106	    0.055739	    0.081392	    0.137131	    0.053697	    0.097781	    0.151478	    0.035951	    0.011762	    0.047712	    0.004414	   -0.035364	   -0.030950	   -0.029127	   -0.068147	   -0.097274	    0.037994	   -0.035170	    0.002824	   -0.007297	   -0.014860	   -0.022157	   -0.012604	    0.007259	   -0.005345	    0.169109	    0.169143	    0.338252	    0.026314	    0.005194	    0.031508	   -0.033529	    0.042795	    0.009266	   -0.096335	   -0.185942	   -0.282276	   -0.033446	   -0.051841	   -0.085287	    0.019859	   -0.099984	   -0.080124	   -0.002152	   -0.000260	   -0.002412	    0.100146	    0.087380	    0.187526	    0.079325	    0.031936	    0.111261	   -0.039173	   -0.088244	   -0.127417
     5.850	0	0	    0	    0.029026	    0.039812	    0.068838	    0.039169	    0.041763	    0.080932	   -0.015951	    0.003139	   -0.012812	   -0.012830	   -0.007976	   -0.020806	    0.060304	    0.060848	    0.121152	    0.063334	    0.081743	    0.145077	    0.004799	    0.025059	    0.029857	    0.007618	   -0.028642	   -0.021024	   -0.002303	   -0.071617	   -0.073920	    0.064435	   -0.065250	   -0.000816	   -0.029321	   -0.021400	   -0.050721	   -0.003977	    0.019082	    0.015105	    0.173419	    0.165869	    0.339288	    0.024498	    0.017022	    0.041521	    0.014904	    0.024713	    0.039617	   -0.100986	   -0.178848	   -0.279834	   -0.000159	   -0.145516	   -0.145674	    0.018167	   -0.120628	   -0.102461	   -0.022008	    0.006597	   -0.015411	    0.096001	    0.094386	    0.190387	    0.067325	    0.049735	    0.117060	   -0.023291	   -0.070236	   -0.093527
     5.925	0	0	    0	    0.027761	    0.010082	    0.037843	    0.032886	    0.050458	    0.083344	    0.001110	   -0.011803	   -0.010693	   -0.020657	   -0.022840	   -0.043498	    0.050663	    0.057681	    0.108344	    0.048246	    0.073965	    0.122211	    0.029808	    0.013810	    0.043618	   -0.000650	   -0.029342	   -0.029992	   -0.012125	   -0.039579	   -0.051704	    0.054752	   -0.050816	    0.003937	   -0.009797	   -0.031753	   -0.041549	   -0.000509	    0.033677	    0.033168	    0.160550	    0.166087	    0.326637	    0.034636	    0.003427	    0.038062	    0.034193	    0.014531	    0.048724	   -0.106584	   -0.168030	   -0.274613	   -0.005552	   -0.120788	   -0.126340	    0.015907	   -0.116318	   -0.100411	   -0.012801	   -0.004434	   -0.017235	    0.088641	    0.099873	    0.188514	    0.056936	    0.052709	    0.109645	   -0.029106	   -0.033353	   -0.062460
     6.000	0	0	    0	    0.038972	    0.002221	    0.041192	    0.041929	    0.045829	    0.087759	    0.026852	   -0.006491	    0.020362	    0.001551	   -0.017880	   -0.016329	    0.037127	    0.032339	    0.069466	    0.030241	    0.052005	    0.082247	    0.071392	    0.002841	    0.074233	    0.014372	   -0.033144	   -0.018772	   -0.028829	   -0.074614	   -0.103443	    0.049334	   -0.130087	   -0.080752	    0.003578	   -0.003131	    0.000447	   -0.004626	    0.028067	    0.023441	    0.142670	    0.139846	    0.282516	    0.041846	    0.009885	    0.051731	    0.034924	    0.016256	    0.051179	   -0.099728	   -0.178211	   -0.277939	   -0.045132	   -0.168735	   -0.213867	   -0.006497	   -0.174692	   -0.181188	   -0.005242	    0.001781	   -0.003461	    0.086503	    0.091936	    0.178439	    0.059299	    0.052325	    0.111623	   -0.018411	   -0.036395	   -0.054806
     6.075	0	0	    0	    0.028957	    0.019168	    0.048126	    0.037510	    0.050563	    0.088073	   -0.003456	    0.014118	    0.010662	    0.003442	   -0.001475	    0.001967	    0.047413	    0.032919	    0.080332	    0.038241	    0.053815	    0.092056	    0.040354	    0.042024	    0.082377	    0.018846	   -0.013413	    0.005432	   -0.012035	   -0.080648	   -0.092683	    0.056863	   -0.144218	   -0.087355	   -0.022989	   -0.004584	   -0.027573	    0.007444	    0.032538	    0.039982	    0.154017	    0.137339	    0.291356	    0.031709	    0.019759	    0.051468	    0.040546	    0.026635	    0.067181	   -0.100495	   -0.178672	   -0.279167	   -0.038752	   -0.234382	   -0.273134	   -0.016082	   -0.191803	   -0.207886	   -0.017221	    0.005868	   -0.011353	    0.080265	    0.090444	    0.170709	    0.050000	    0.057749	    0.107748	   -0.030105	   -0.037373	   -0.067478
     6.150	0	0	    0	   -0.002002	    0.034389	    0.032388	    0.032430	    0.051058	    0.083488	   -0.037452	   -0.006203	   -0.043655	   -0.017847	   -0.013043	   -0.030890	    0.040734	    0.044732	    0.085466	    0.050745	    0.052409	    0.103155	   -0.003788	    0.032776	    0.028988	   -0.002550	   -0.003057	   -0.005608	    0.023435	   -0.065264	   -0.041830	    0.061515	   -0.118187	   -0.056672	   -0.041661	   -0.031255	   -0.072916	    0.014119	    0.041836	    0.055954	    0.172899	    0.144392	    0.317291	    0.008093	    0.019712	    0.027805	   -0.015371	    0.064859	    0.049488	   -0.085089	   -0.174685	   -0.259774	   -0.007389	   -0.222860	   -0.230249	    0.009128	   -0.202395	   -0.193266	   -0.021759	    0.011009	   -0.010750	    0.090173	    0.105091	    0.195264	    0.044410	    0.059558	    0.103968	   -0.047901	   -0.072949	   -0.120849
     6.225	0	0	    0	   -0.018803	    0.023742	    0.004939	    0.033461	    0.058320	    0.091781	   -0.054655	   -0.016898	   -0.071553	   -0.027562	   -0.025033	   -0.052595	    0.047927	    0.047155	    0.095082	    0.055458	    0.055703	    0.111161	   -0.046239	   -0.020456	   -0.066695	   -0.020724	   -0.019892	   -0.040615	    0.037375	   -0.025023	    0.012351	    0.091326	    0.093848	    0.185173	   -0.043897	   -0.027986	   -0.071883	    0.020771	    0.061129	    0.081900	    0.152502	    0.200109	    0.352611	   -0.006113	    0.013996	    0.007883	   -0.061242	    0.075578	    0.014336	   -0.078609	   -0.158816	   -0.237425	    0.043916	   -0.014738	    0.029178	    0.067413	    0.068348	    0.135762	   -0.021501	    0.024890	    0.003389	    0.094930	    0.134089	    0.229018	    0.033506	    0.073532	    0.107038	   -0.054564	   -0.067247	   -0.121810
     6.300	0	0	    0	    0.009380	    0.000715	    0.010095	    0.035257	    0.056114	    0.091371	   -0.056609	   -0.025089	   -0.081697	   -0.030339	   -0.023082	   -0.053421	    0.073544	    0.068175	    0.141719	    0.074986	    0.090683	    0.165668	   -0.066705	   -0.035761	   -0.102465	   -0.010889	   -0.031912	   -0.042801	    0.019445	   -0.010379	    0.009066	    0.050301	    0.136942	    0.187243	   -0.044027	   -0.024944	   -0.068971	    0.018301	    0.073746	    0.092047	    0.195031	    0.175685	    0.370716	   -0.015120	    0.003800	   -0.011320	   -0.060702	    0.067489	    0.006787	   -0.112216	   -0.157319	   -0.269535	    0.005344	    0.085331	    0.090674	    0.033704	    0.151174	    0.184877	   -0.019640	    0.031751	    0.012111	    0.136439	    0.135351	    0.271790	    0.045112	    0.030162	    0.075274	   -0.065843	   -0.066027	   -0.131871
     6.375	0	0	    0	    0.008127	    0.015361	    0.023489	    0.031932	    0.059065	    0.090997	   -0.057337	   -0.028936	   -0.086273	   -0.030942	   -0.019481	   -0.050423	    0.084466	    0.104334	    0.188800	    0.085860	    0.107094	    0.192954	   -0.059265	   -0.050403	   -0.109668	   -0.019410	   -0.035214	   -0.054625	    0.020414	   -0.011896	    0.008518	    0.008510	    0.096135	    0.104645	   -0.044933	   -0.025241	   -0.070174	    0.008551	    0.058588	    0.067139	    0.202342	    0.213666	    0.416008	   -0.022492	   -0.006057	   -0.028549	   -0.038990	    0.053955	    0.014965	   -0.127343	   -0.171461	   -0.298804	   -0.016631	    0.022098	    0.005467	    0.025668	    0.108830	    0.134498	   -0.021099	    0.025737	    0.004637	    0.136198	    0.143470	    0.279668	    0.039333	    0.022636	    0.061969	   -0.049695	   -0.086415	   -0.136110
     6.450	0	0	    0	    0.028673	   -0.003445	    0.025228	    0.011723	    0.064555	    0.076278	   -0.046677	   -0.030602	   -0.077279	   -0.032498	   -0.020358	   -0.052856	    0.087619	    0.122411	    0.210029	    0.074391	    0.119592	    0.193983	   -0.027882	   -0.062356	   -0.090238	   -0.025919	   -0.038790	   -0.064709	    0.015361	   -0.018043	   -0.002682	   -0.011236	    0.073329	    0.062094	   -0.055668	   -0.024474	   -0.080142	    0.004727	    0.052779	    0.057506	    0.179246	    0.238346	    0.417592	   -0.019410	   -0.014020	   -0.033430	    0.033339	    0.008893	    0.042232	   -0.129453	   -0.188399	   -0.317851	   -0.022624	   -0.010985	   -0.033609	    0.063248	    0.075286	    0.138534	   -0.032929	    0.024175	   -0.008754	    0.140676	    0.142401	    0.283076	    0.028672	    0.021233	    0.049905	   -0.041144	   -0.077390	   -0.118534
     6.525	0	0	    0	    0.020221	    0.018731	    0.038952	    0.014196	    0.042343	    0.056538	   -0.013695	   -0.022701	   -0.036396	   -0.038054	   -0.030223	   -0.068277	    0.072036	    0.144137	    0.216173	    0.028803	    0.136284	    0.165087	    0.009445	    0.011404	    0.020849	   -0.011572	   -0.048838	   -0.060410	   -0.012282	   -0.045680	   -0.057961	    0.055918	    0.125023	    0.180940	   -0.027054	   -0.045607	   -0.072661	   -0.031696	    0.038501	    0.006805	    0.111783	    0.231281	    0.343064	    0.014331	   -0.014506	   -0.000175	    0.043087	    0.012275	    0.055362	   -0.110060	   -0.203233	   -0.313293	    0.060728	    0.036992	    0.097719	    0.002948	    0.085655	    0.088603	   -0.020457	   -0.000541	   -0.020998	    0.069929	    0.145793	    0.215722	    0.037736	    0.005491	    0.043227	   -0.011451	   -0.081691	   -0.093142
     6.600	0	0	    0	    0.021110	    0.022718	    0.043828	    0.020602	    0.042826	    0.063429	    0.001623	    0.010696	    0.012319	   -0.012525	   -0.022437	   -0.034962	    0.026395	    0.059477	    0.085872	    0.030027	    0.090406	    0.120433	    0.018363	    0.067215	    0.085577	   -0.000674	   -0.044518	   -0.045193	   -0.043164	   -0.061333	   -0.104498	   -0.003200	   -0.046659	   -0.049859	    0.005235	   -0.015015	   -0.009780	   -0.016521	    0.018699	    0.002177	    0.144602	    0.137171	    0.281774	    0.047079	    0.013962	    0.061041	    0.039110	    0.019334	    0.058444	   -0.106432	   -0.182663	   -0.289094	   -0.077224	   -0.051544	   -0.128768	   -0.044113	   -0.150169	   -0.194282	   -0.012895	    0.002225	   -0.010670	    0.085902	    0.088233	    0.174135	    0.079862	    0.022625	    0.102486	   -0.007973	   -0.053993	   -0.061967
     6.675	0	0	    0	    0.046849	    0.050719	    0.097568	    0.031882	    0.044203	    0.076085	    0.025434	    0.022280	    0.047714	    0.017384	   -0.000137	    0.017246	    0.030197	    0.034268	    0.064465	    0.017989	    0.076727	    0.094716	    0.058320	    0.053019	    0.111339	    0.032361	   -0.014070	    0.018291	   -0.038154	   -0.093896	   -0.132050	   -0.009185	   -0.214261	   -0.223446	    0.021913	    0.010891	    0.032804	   -0.008045	    0.028902	    0.020857	    0.127357	    0.138155	    0.265512	    0.076626	    0.030577	    0.107203	    0.042608	    0.020681	    0.063289	   -0.100740	   -0.195428	   -0.296167	   -0.095410	   -0.289327	   -0.384737	   -0.062389	   -0.281809	   -0.344198	   -0.003732	    0.000205	   -0.003527	    0.089127	    0.097815	    0.186942	    0.083822	    0.056530	    0.140353	    0.016995	   -0.036462	   -0.019467
     6.750	0	0	    0	    0.077534	    0.052160	    0.129694	    0.032338	    0.049585	    0.081923	    0.039084	    0.026259	    0.065343	    0.033900	    0.020638	    0.054537	    0.042339	    0.040862	    0.083201	    0.005719	    0.077506	    0.083226	    0.090464	    0.030109	    0.120573	    0.050123	    0.005337	    0.055460	   -0.037906	   -0.092255	   -0.130161	   -0.035988	   -0.285405	   -0.321393	    0.027327	    0.022188	    0.049515	    0.000966	    0.042533	    0.043499	    0.127600	    0.140569	    0.268168	    0.084970	    0.026335	    0.111306	    0.041973	    0.028174	    0.070146	   -0.098857	   -0.192518	   -0.291375	   -0.135349	   -0.400546	   -0.535895	   -0.079342	   -0.354984	   -0.434325	   -0.003500	    0.002709	   -0.000791	    0.093176	    0.092602	    0.185778	    0.085452	    0.056604	    0.142057	   -0.009019	   -0.029101	   -0.038119
     6.825	0	0	    0	    0.059270	    0.057722	    0.116992	    0.027785	    0.047408	    0.075192	    0.021564	    0.024908	    0.046472	    0.018709	    0.028042	    0.046751	    0.057338	    0.045423	    0.102761	    0.050768	    0.077152	    0.127920	    0.077439	    0.031698	    0.109136	    0.047117	    0.010532	    0.057649	   -0.034731	   -0.086101	   -0.120832	   -0.022161	   -0.295803	   -0.317964	   -0.001536	    0.017577	    0.016041	    0.009870	    0.050764	    0.060635	    0.172817	    0.142348	    0.315165	    0.056626	    0.042590	    0.099216	    0.011303	    0.056754	    0.068057	   -0.102926	   -0.187000	   -0.289926	   -0.128808	   -0.425486	   -0.554293	   -0.094358	   -0.361695	   -0.456053	   -0.023734	    0.006806	   -0.016928	    0.089698	    0.096948	    0.186646	    0.086890	    0.057309	    0.144199	   -0.018516	   -0.045031	   -0.063546
     6.900	0	0	    0	    0.043111	    0.051659	    0.094770	    0.023674	    0.051239	    0.074913	   -0.026378	   -0.001995	   -0.028373	   -0.010115	    0.002271	   -0.007844	    0.090681	    0.083040	    0.173721	    0.081265	    0.107431	    0.188696	    0.032584	    0.030910	    0.063494	    0.016753	    0.014042	    0.030795	    0.002331	   -0.077537	   -0.075205	    0.005283	   -0.271352	   -0.266068	   -0.036285	   -0.022006	   -0.058291	    0.014390	    0.062724	    0.077113	    0.218618	    0.192342	    0.410960	    0.039726	    0.029230	    0.068957	    0.048530	    0.042435	    0.090965	   -0.085387	   -0.192156	   -0.277543	   -0.094697	   -0.393801	   -0.488497	   -0.083682	   -0.347460	   -0.431142	   -0.038121	    0.013087	   -0.025034	    0.113327	    0.107638	    0.220965	    0.079649	    0.056845	    0.136494	    0.006317	   -0.064504	   -0.058187
     6.975	0	0	    0	    0.012366	    0.044523	    0.056889	    0.029755	    0.058686	    0.088440	   -0.044670	   -0.009893	   -0.054563	   -0.025514	   -0.020314	   -0.045829	    0.085757	    0.104987	    0.190744	    0.076607	    0.115962	    0.192569	   -0.018768	    0.020151	    0.001383	    0.006291	   -0.013862	   -0.007571	    0.023930	   -0.049189	   -0.025259	    0.103921	   -0.124114	   -0.020193	   -0.041762	   -0.029019	   -0.070780	    0.018942	    0.076186	    0.095128	    0.228925	    0.236696	    0.465621	    0.018548	    0.015628	    0.034176	    0.057320	    0.034961	    0.092281	   -0.073877	   -0.181356	   -0.255233	    0.025901	   -0.306335	   -0.280434	    0.039856	   -0.139509	   -0.099653	   -0.045628	    0.017020	   -0.028608	    0.109409	    0.150082	    0.259491	    0.075577	    0.058420	    0.133996	    0.039522	   -0.018336	    0.021187
     7.050	0	0	    0	    0.016242	    0.034190	    0.050432	    0.033948	    0.062695	    0.096643	   -0.041102	   -0.022181	   -0.063283	   -0.026242	   -0.020976	   -0.047218	    0.085483	    0.127099	    0.212582	    0.082400	    0.127060	    0.209461	   -0.012932	   -0.029503	   -0.042435	    0.001316	   -0.019855	   -0.018538	    0.032566	   -0.031122	    0.001444	    0.070676	    0.052551	    0.123227	   -0.045695	   -0.028513	   -0.074208	    0.013441	    0.081844	    0.095285	    0.214946	    0.257583	    0.472529	    0.003234	    0.001965	    0.005200	    0.048459	    0.053518	    0.101977	   -0.065918	   -0.163902	   -0.229820	    0.012253	   -0.041947	   -0.029695	    0.001336	    0.013426	    0.014762	   -0.046087	    0.015840	   -0.030248	    0.116393	    0.156529	    0.272922	    0.063978	    0.057782	    0.121760	    0.056675	    0.020570	    0.077246
     7.125	0	0	    0	    0.001072	    0.053439	    0.054511	    0.034744	    0.067243	    0.101987	   -0.047699	   -0.017178	   -0.064877	   -0.032448	   -0.014146	   -0.046594	    0.082967	    0.146365	    0.229332	    0.062456	    0.150960	    0.213416	   -0.036288	   -0.008122	   -0.044409	   -0.000980	   -0.015307	   -0.016288	    0.039820	   -0.021706	    0.018115	    0.037437	    0.099761	    0.137198	   -0.052335	   -0.026072	   -0.078407	    0.013689	    0.082247	    0.095936	    0.206793	    0.266775	    0.473568	   -0.009853	    0.001973	   -0.007880	    0.071371	    0.049511	    0.120881	   -0.063958	   -0.158738	   -0.222697	    0.012060	    0.004739	    0.016798	    0.001031	    0.023824	    0.024856	   -0.045524	    0.016894	   -0.028630	    0.119939	    0.157547	    0.277486	    0.060857	    0.055289	    0.116146	    0.075430	    0.045525	    0.120955
     7.200	0	0	    0	    0.039266	    0.013738	    0.053004	    0.023645	    0.071741	    0.095385	   -0.038907	   -0.020641	   -0.059548	   -0.034467	   -0.017158	   -0.051625	    0.095119	    0.150529	    0.245648	    0.055524	    0.140369	    0.195893	   -0.047067	   -0.000310	   -0.047377	    0.005252	   -0.023577	   -0.018325	    0.028317	   -0.017651	    0.010665	    0.046800	    0.083899	    0.130699	   -0.056087	   -0.027050	   -0.083138	    0.011191	    0.086436	    0.097627	    0.191512	    0.264566	    0.456078	   -0.021661	   -0.010832	   -0.032494	    0.022387	    0.047139	    0.069527	   -0.082065	   -0.160526	   -0.242591	    0.011640	   -0.003569	    0.008072	    0.002596	    0.031095	    0.033691	   -0.054606	    0.015965	   -0.038641	    0.114799	    0.159639	    0.274439	    0.032171	    0.048966	    0.081137	    0.005551	    0.030927	    0.036478
     7.275	0	0	    0	    0.016061	    0.031196	    0.047257	    0.014522	    0.056360	    0.070883	   -0.032938	   -0.009242	   -0.042179	   -0.043575	   -0.021171	   -0.064746	    0.072910	    0.160312	    0.233222	    0.060570	    0.141335	    0.201905	    0.005153	   -0.009966	   -0.004812	   -0.012184	   -0.026886	   -0.039070	   -0.021019	   -0.034199	   -0.055218	    0.024830	    0.053847	    0.078677	   -0.046139	   -0.040364	   -0.086503	   -0.003873	    0.073463	    0.069590	    0.165521	    0.240568	    0.406089	   -0.008318	   -0.020610	   -0.028929	    0.039567	    0.012376	    0.051943	   -0.109454	   -0.176636	   -0.286090	   -0.002036	   -0.011083	   -0.013119	   -0.005947	    0.013131	    0.007184	   -0.048068	    0.003834	   -0.044234	    0.092136	    0.139845	    0.231981	    0.031255	    0.022076	    0.053332	   -0.022080	   -0.012829	   -0.034909
     7.350	0	0	    0	    0.009653	    0.048986	    0.058639	    0.013302	    0.047290	    0.060593	   -0.035069	   -0.014633	   -0.049702	   -0.041741	   -0.027746	   -0.069488	    0.073911	    0.142521	    0.216431	    0.074190	    0.127100	    0.201290	   -0.022406	    0.003488	   -0.018917	   -0.006650	   -0.028825	   -0.035476	   -0.016469	   -0.061980	   -0.078448	    0.054465	    0.010907	    0.065372	   -0.047538	   -0.034433	   -0.081971	   -0.001526	    0.062957	    0.061431	    0.170764	    0.218819	    0.389584	   -0.012252	   -0.011358	   -0.023610	   -0.019555	    0.066067	    0.046511	   -0.105934	   -0.188369	   -0.294303	   -0.010332	   -0.049561	   -0.059892	   -0.010625	   -0.000657	   -0.011281	   -0.050632	    0.007248	   -0.043384	    0.105827	    0.126425	    0.232252	    0.037665	    0.020689	    0.058354	   -0.070784	   -0.043764	   -0.114548
     7.425	0	0	    0	    0.006340	    0.049983	    0.056323	    0.015641	    0.050868	    0.066508	   -0.045911	   -0.028103	   -0.074014	   -0.039813	   -0.029370	   -0.069183	    0.079318	    0.127799	    0.207117	    0.085429	    0.120491	    0.205920	   -0.046673	   -0.028213	   -0.074886	   -0.011089	   -0.019278	   -0.030367	    0.005112	   -0.046713	   -0.041601	    0.050238	    0.036676	    0.086914	   -0.053943	   -0.034010	   -0.087953	    0.003246	    0.067832	    0.071078	    0.199572	    0.217454	    0.417026	   -0.007014	   -0.027483	   -0.034497	   -0.012467	   -0.017981	   -0.030449	   -0.088174	   -0.177250	   -0.265424	    0.010074	   -0.041938	   -0.031864	   -0.012358	    0.008773	   -0.003585	   -0.053468	    0.015798	   -0.037670	    0.110044	    0.149474	    0.259518	    0.063703	    0.028739	    0.092442	   -0.105070	   -0.101319	   -0.206389
     7.500	0	0	    0	    0.029125	    0.020009	    0.049135	    0.019392	    0.054823	    0.074215	   -0.050834	   -0.028541	   -0.079375	   -0.039446	   -0.023484	   -0.062930	    0.086637	    0.142951	    0.229589	    0.080869	    0.143158	    0.224027	   -0.060371	   -0.059205	   -0.119576	   -0.007288	   -0.023316	   -0.030605	    0.014483	   -0.027931	   -0.013448	    0.049645	    0.090515	    0.140159	   -0.053215	   -0.030027	   -0.083242	    0.005795	    0.080201	    0.085996	    0.203001	    0.253262	    0.456263	   -0.000884	   -0.023118	   -0.024001	   -0.025062	   -0.000352	   -0.025415	   -0.088603	   -0.157285	   -0.245888	    0.027931	   -0.005647	    0.022284	    0.017722	    0.024570	    0.042292	   -0.044062	    0.016600	   -0.027462	    0.145363	    0.157397	    0.302760	    0.048179	    0.049018	    0.097197	   -0.113899	   -0.124885	   -0.238784
     7.575	0	0	    0	    0.013622	    0.050447	    0.064069	    0.017015	    0.059880	    0.076896	   -0.063054	   -0.022135	   -0.085189	   -0.038425	   -0.016804	   -0.055230	    0.092129	    0.156860	    0.248989	    0.078973	    0.156134	    0.235107	   -0.087456	   -0.031727	   -0.119184	   -0.011297	   -0.020235	   -0.031532	   -0.004016	   -0.009677	   -0.013693	    0.064029	    0.121939	    0.185967	   -0.050692	   -0.027910	   -0.078602	   -0.000138	    0.078718	    0.078580	    0.203535	    0.260907	    0.464442	   -0.019470	   -0.022343	   -0.041813	   -0.011856	   -0.006357	   -0.018213	   -0.125036	   -0.148459	   -0.273495	    0.014398	    0.080049	    0.094447	    0.025441	    0.106238	    0.131679	   -0.042336	    0.026698	   -0.015638	    0.145778	    0.184568	    0.330346	    0.038478	    0.031834	    0.070312	   -0.105730	   -0.146744	   -0.252475
     7.650	0	0	    0	    0.034181	    0.028839	    0.063020	    0.020679	    0.060885	    0.081564	   -0.057504	   -0.030365	   -0.087869	   -0.032797	   -0.016697	   -0.049494	    0.095820	    0.160757	    0.256577	    0.078265	    0.155119	    0.233385	   -0.073161	   -0.048708	   -0.121870	   -0.009212	   -0.031022	   -0.040234	   -0.002195	   -0.010380	   -0.012574	    0.032269	    0.135179	    0.167448	   -0.048246	   -0.025038	   -0.073284	   -0.006178	    0.067843	    0.061666	    0.207939	    0.268486	    0.476426	   -0.027548	   -0.038319	   -0.065867	   -0.011845	   -0.012439	   -0.024285	   -0.136498	   -0.160387	   -0.296885	   -0.011528	    0.083907	    0.072379	    0.026036	    0.127976	    0.154012	   -0.042079	    0.024911	   -0.017168	    0.141437	    0.174048	    0.315484	    0.028469	    0.028196	    0.056665	   -0.073994	   -0.124004	   -0.197998
     7.725	0	0	    0	    0.012916	    0.035234	    0.048150	    0.024759	    0.063519	    0.088278	   -0.062350	   -0.024677	   -0.087027	   -0.034170	   -0.010674	   -0.044844	    0.090153	    0.167925	    0.258078	    0.060253	    0.155591	    0.215844	   -0.065275	   -0.053963	   -0.119238	   -0.023152	   -0.022172	   -0.045324	    0.006994	   -0.014681	   -0.007686	    0.019291	    0.109359	    0.128649	   -0.045911	   -0.020485	   -0.066396	   -0.006891	    0.060063	    0.053172	    0.192899	    0.282186	    0.475086	   -0.043894	   -0.025374	   -0.069268	    0.002604	    0.051806	    0.054410	   -0.140080	   -0.173589	   -0.313669	   -0.017360	    0.039465	    0.022105	    0.031150	    0.113998	    0.145148	   -0.039188	    0.024072	   -0.015116	    0.127931	    0.169069	    0.297000	    0.022781	    0.019801	    0.042582	   -0.048708	   -0.099907	   -0.148615
     7.800	0	0	    0	    0.031389	    0.024740	    0.056130	    0.032603	    0.065751	    0.098354	   -0.054979	   -0.026424	   -0.081403	   -0.028748	   -0.012768	   -0.041516	    0.094182	    0.162832	    0.257014	    0.068170	    0.158970	    0.227140	   -0.058022	   -0.026354	   -0.084377	   -0.005643	   -0.035115	   -0.040757	    0.020373	   -0.014883	    0.005490	    0.012199	    0.092311	    0.104510	   -0.042191	   -0.019127	   -0.061319	   -0.004411	    0.060327	    0.055917	    0.200842	    0.276419	    0.477261	   -0.030418	   -0.026069	   -0.056487	    0.044172	    0.041461	    0.085634	   -0.119629	   -0.177765	   -0.297394	   -0.018775	    0.007179	   -0.011596	    0.032881	    0.113026	    0.145907	   -0.033261	    0.026019	   -0.007243	    0.133364	    0.162814	    0.296178	    0.030873	    0.023206	    0.054078	   -0.035888	   -0.079933	   -0.115821
     7.875	0	0	    0	    0.016690	    0.056677	    0.073367	    0.018855	    0.060037	    0.078892	   -0.021300	   -0.017386	   -0.038686	   -0.031720	   -0.004641	   -0.036361	    0.098493	    0.168717	    0.267210	    0.068091	    0.158128	    0.226218	   -0.000721	   -0.027835	   -0.028556	   -0.007026	   -0.024417	   -0.031443	   -0.008326	    0.003205	   -0.005121	    0.088220	    0.046907	    0.135127	   -0.052089	   -0.023819	   -0.075908	   -0.007004	    0.066704	    0.059700	    0.189997	    0.273543	    0.463540	   -0.022805	   -0.036623	   -0.059429	    0.036343	    0.041641	    0.077984	   -0.124284	   -0.166399	   -0.290683	    0.000022	    0.009836	    0.009858	   -0.013168	    0.162293	    0.149125	   -0.042076	    0.022791	   -0.019284	    0.124827	    0.176486	    0.301313	    0.018068	    0.017594	    0.035663	   -0.031576	   -0.065238	   -0.096814
     7.950	0	0	    0	    0.023616	    0.038987	    0.062602	    0.018887	    0.045523	    0.064409	    0.014303	   -0.022203	   -0.007900	   -0.029670	   -0.023913	   -0.053583	    0.044001	    0.151748	    0.195749	    0.060398	    0.105395	    0.165793	    0.080527	   -0.017629	    0.062898	   -0.005139	   -0.038854	   -0.043993	   -0.042771	   -0.037701	   -0.080472	    0.015454	    0.034015	    0.049469	   -0.015799	   -0.031536	   -0.047335	   -0.022293	    0.034097	    0.011804	    0.119890	    0.203650	    0.323540	    0.015570	   -0.021738	   -0.006168	    0.050501	    0.024492	    0.074993	   -0.118392	   -0.178739	   -0.297131	   -0.070684	    0.033871	   -0.036813	   -0.030529	   -0.034922	   -0.065451	   -0.022438	    0.011014	   -0.011424	    0.064017	    0.107235	    0.171252	    0.052196	    0.006736	    0.058932	   -0.003154	   -0.053631	   -0.056785
     8.025	0	0	    0	    0.033744	    0.041664	    0.075408	    0.016095	    0.046205	    0.062300	    0.007850	    0.012944	    0.020794	   -0.010988	   -0.005110	   -0.016098	    0.039861	    0.070052	    0.109913	    0.046805	    0.093293	    0.140098	    0.064368	    0.047778	    0.112146	    0.004652	   -0.020020	   -0.015369	   -0.058542	   -0.074007	   -0.132549	    0.006676	   -0.166979	   -0.160303	   -0.003730	   -0.006254	   -0.009984	   -0.016149	    0.045705	    0.029556	    0.147157	    0.154141	    0.301298	    0.034168	    0.008028	    0.042196	    0.045622	    0.034082	    0.079704	   -0.124183	   -0.195586	   -0.319769	   -0.085201	   -0.202742	   -0.287943	   -0.040797	   -0.242049	   -0.282846	   -0.017987	    0.015771	   -0.002216	    0.082222	    0.112116	    0.194338	    0.068863	    0.041915	    0.110778	   -0.010117	   -0.020362	   -0.030479
     8.100	0	0	    0	    0.024253	    0.073292	    0.097546	    0.018750	    0.048663	    0.067414	    0.003702	    0.003921	    0.007623	   -0.009331	    0.010219	    0.000889	    0.044777	    0.062875	    0.107652	    0.060635	    0.081754	    0.142389	    0.032738	    0.039588	    0.072326	    0.003775	   -0.008635	   -0.004860	   -0.039927	   -0.087932	   -0.127859	    0.033450	   -0.229805	   -0.196355	   -0.025117	   -0.008028	   -0.033145	   -0.010456	    0.051094	    0.040638	    0.156864	    0.158738	    0.315602	    0.029387	    0.016438	    0.045824	    0.052055	    0.029814	    0.081868	   -0.119241	   -0.208723	   -0.327964	   -0.063399	   -0.304889	   -0.368288	   -0.053258	   -0.275042	   -0.328300	   -0.031101	    0.022811	   -0.008290	    0.085035	    0.125354	    0.210389	    0.063734	    0.054219	    0.117953	   -0.022077	   -0.047722	   -0.069798
     8.175	0	0	    0	    0.026137	    0.042399	    0.068536	    0.017752	    0.057844	    0.075596	   -0.040242	   -0.011103	   -0.051345	   -0.024815	   -0.007051	   -0.031866	    0.060307	    0.064175	    0.124482	    0.060174	    0.099735	    0.159909	    0.005280	    0.011463	    0.016743	   -0.001358	   -0.016839	   -0.018197	   -0.003049	   -0.071332	   -0.074381	    0.019876	   -0.189636	   -0.169760	   -0.040565	   -0.027873	   -0.068439	   -0.004802	    0.060222	    0.055420	    0.188845	    0.172368	    0.361213	    0.005972	    0.011513	    0.017484	    0.033541	    0.042983	    0.076523	   -0.103065	   -0.204696	   -0.307761	   -0.043498	   -0.302970	   -0.346468	   -0.046613	   -0.289654	   -0.336267	   -0.041029	    0.026966	   -0.014064	    0.100719	    0.139346	    0.240065	    0.063692	    0.054076	    0.117768	   -0.040215	   -0.065747	   -0.105962
     8.250	0	0	    0	    0.010910	    0.048497	    0.059407	    0.019559	    0.062280	    0.081839	   -0.042869	   -0.025964	   -0.068833	   -0.028665	   -0.014458	   -0.043122	    0.075418	    0.091311	    0.166729	    0.080540	    0.114703	    0.195243	   -0.030362	   -0.019438	   -0.049801	   -0.004705	   -0.021045	   -0.025750	    0.022283	   -0.035577	   -0.013294	    0.124776	   -0.079773	    0.045003	   -0.041188	   -0.025430	   -0.066618	   -0.004226	    0.074121	    0.069895	    0.199160	    0.231770	    0.430930	   -0.016427	    0.012447	   -0.003980	   -0.027822	    0.078101	    0.050278	   -0.086203	   -0.181318	   -0.267521	    0.053688	   -0.248921	   -0.195233	    0.042663	   -0.059482	   -0.016819	   -0.044363	    0.030252	   -0.014111	    0.100336	    0.155525	    0.255861	    0.052525	    0.070455	    0.122980	   -0.039027	   -0.085738	   -0.124765
     8.325	0	0	    0	    0.011215	    0.053553	    0.064768	    0.020768	    0.067692	    0.088460	   -0.059371	   -0.016178	   -0.075549	   -0.025677	   -0.014609	   -0.040286	    0.087131	    0.125010	    0.212142	    0.080523	    0.139755	    0.220278	   -0.054716	   -0.026336	   -0.081051	   -0.002745	   -0.022333	   -0.025077	    0.010852	   -0.000902	    0.009950	    0.038109	    0.125205	    0.163314	   -0.040523	   -0.023395	   -0.063918	   -0.003673	    0.072589	    0.068916	    0.209872	    0.234383	    0.444255	   -0.016955	   -0.006455	   -0.023410	   -0.014746	    0.033005	    0.018260	   -0.109347	   -0.155504	   -0.264851	    0.016413	    0.063205	    0.079618	    0.034482	    0.088239	    0.122721	   -0.039742	    0.025287	   -0.014455	    0.138957	    0.157969	    0.296926	    0.051344	    0.034339	    0.085683	   -0.052764	   -0.091448	   -0.144212
     8.400	0	0	    0	    0.037038	    0.032993	    0.070031	    0.024473	    0.066208	    0.090680	   -0.051903	   -0.022399	   -0.074302	   -0.023129	   -0.011829	   -0.034959	    0.099320	    0.141844	    0.241164	    0.093908	    0.151380	    0.245288	   -0.048490	   -0.040668	   -0.089158	   -0.001301	   -0.024582	   -0.025883	    0.019631	   -0.010853	    0.008778	    0.041821	    0.094497	    0.136318	   -0.039821	   -0.021362	   -0.061183	   -0.006457	    0.063208	    0.056751	    0.213401	    0.251897	    0.465298	   -0.011683	   -0.030843	   -0.042526	    0.008910	   -0.015697	   -0.006788	   -0.108047	   -0.170528	   -0.278575	    0.022756	    0.023914	    0.046669	    0.027461	    0.107730	    0.135191	   -0.041007	    0.025290	   -0.015717	    0.142032	    0.162111	    0.304143	    0.055952	    0.028327	    0.084278	   -0.087938	   -0.127736	   -0.215674
     8.475	0	0	    0	    0.038491	    0.039070	    0.077561	    0.000939	    0.062650	    0.063589	   -0.033415	   -0.021430	   -0.054845	   -0.026572	   -0.006307	   -0.032879	    0.107910	    0.152858	    0.260768	    0.071835	    0.176949	    0.248784	   -0.028160	   -0.031577	   -0.059737	    0.000265	   -0.034464	   -0.034199	   -0.015329	    0.003548	   -0.011781	    0.009212	    0.133037	    0.142249	   -0.048690	   -0.021133	   -0.069823	   -0.007666	    0.058539	    0.050873	    0.194025	    0.272955	    0.466980	   -0.014540	   -0.033294	   -0.047834	    0.007251	   -0.006991	    0.000260	   -0.117514	   -0.165486	   -0.283000	    0.010879	    0.035114	    0.045994	    0.021820	    0.111890	    0.133709	   -0.046881	    0.024668	   -0.022212	    0.143363	    0.167684	    0.311047	    0.042914	    0.042855	    0.085769	   -0.106344	   -0.146498	   -0.252842
     8.550	0	0	    0	    0.039584	    0.059778	    0.099362	    0.002711	    0.051177	    0.053888	   -0.012096	   -0.019030	   -0.031126	   -0.032326	   -0.017297	   -0.049623	    0.105546	    0.184603	    0.290148	    0.066220	    0.166191	    0.232412	    0.015907	   -0.021343	   -0.005436	    0.002483	   -0.026950	   -0.024467	   -0.041400	   -0.023550	   -0.064950	    0.042297	    0.105937	    0.148235	   -0.038808	   -0.029908	   -0.068716	   -0.037094	    0.045207	    0.008113	    0.154579	    0.262197	    0.416775	    0.010509	   -0.043968	   -0.033459	    0.004870	   -0.000513	    0.004358	   -0.120405	   -0.167578	   -0.287984	    0.003529	    0.051939	    0.055468	    0.010838	    0.083107	    0.093945	   -0.048157	    0.009499	   -0.038658	    0.070618	    0.166710	    0.237329	    0.037762	    0.006878	    0.044639	   -0.099692	   -0.164526	   -0.264218
     8.625	0	0	    0	    0.053753	    0.053708	    0.107462	    0.006068	    0.048249	    0.054317	   -0.007056	   -0.005145	   -0.012201	   -0.016584	   -0.012841	   -0.029426	    0.092574	    0.143702	    0.236276	    0.076856	    0.141469	    0.218324	    0.027727	    0.000529	    0.028255	   -0.000649	   -0.014555	   -0.015204	   -0.054794	   -0.055037	   -0.109831	    0.086656	    0.024570	    0.111226	   -0.037252	   -0.019647	   -0.056899	   -0.031310	    0.023109	   -0.008201	    0.191306	    0.232213	    0.423519	    0.020969	   -0.028875	   -0.007905	    0.005501	    0.002756	    0.008257	   -0.122860	   -0.182025	   -0.304885	   -0.027041	   -0.004816	   -0.031857	    0.007056	    0.042681	    0.049737	   -0.046226	    0.010657	   -0.035568	    0.078072	    0.103507	    0.181578	    0.057234	    0.024141	    0.081374	   -0.088848	   -0.155351	   -0.244199
     8.700	0	0	    0	    0.049570	    0.059092	    0.108662	    0.006098	    0.055525	    0.061623	   -0.046468	    0.007600	   -0.038868	   -0.022511	   -0.003866	   -0.026377	    0.095078	    0.145527	    0.240605	    0.066854	    0.147346	    0.214200	    0.003899	    0.006521	    0.010420	   -0.009560	   -0.010499	   -0.020058	   -0.037392	   -0.053046	   -0.090438	    0.048402	    0.071454	    0.119856	   -0.046971	   -0.021904	   -0.068874	   -0.025843	    0.033451	    0.007607	    0.192528	    0.248168	    0.440696	    0.012388	   -0.025608	   -0.013220	    0.015167	   -0.012824	    0.002343	   -0.129573	   -0.178530	   -0.308103	   -0.022514	   -0.010034	   -0.032548	   -0.004705	    0.046755	    0.042050	   -0.050597	    0.015776	   -0.034821	    0.077084	    0.111632	    0.188716	    0.052264	    0.033214	    0.085478	   -0.054544	   -0.153122	   -0.207666
     8.775	0	0	    0	    0.019785	    0.051529	    0.071314	    0.017477	    0.061187	    0.078664	   -0.048302	   -0.019903	   -0.068205	   -0.036159	   -0.016007	   -0.052167	    0.088985	    0.140799	    0.229784	    0.069796	    0.139026	    0.208822	   -0.017207	    0.001869	   -0.015338	   -0.016794	   -0.026040	   -0.042834	   -0.012915	   -0.029734	   -0.042650	    0.062020	    0.052894	    0.114914	   -0.052480	   -0.021286	   -0.073766	   -0.020339	    0.044929	    0.024590	    0.190378	    0.250845	    0.441223	   -0.013224	   -0.005517	   -0.018741	    0.041335	    0.040625	    0.081960	   -0.135134	   -0.179484	   -0.314618	   -0.032414	    0.002993	   -0.029421	   -0.008476	    0.044388	    0.035913	   -0.054308	    0.023003	   -0.031306	    0.068804	    0.125437	    0.194241	    0.029179	    0.036180	    0.065358	   -0.009444	   -0.085334	   -0.094778
     8.850	0	0	    0	    0.002553	    0.058040	    0.060593	    0.008067	    0.079593	    0.087660	   -0.060136	   -0.003447	   -0.063583	   -0.044880	   -0.011601	   -0.056481	    0.073949	    0.151681	    0.225630	    0.042335	    0.159520	    0.201856	   -0.041207	    0.010031	   -0.031176	   -0.029427	   -0.016120	   -0.045548	   -0.015705	   -0.014549	   -0.030254	    0.023993	    0.112901	    0.136894	   -0.059038	   -0.020158	   -0.079196	   -0.023369	    0.058066	    0.034698	    0.176173	    0.261084	    0.437257	   -0.018935	   -0.009794	   -0.028729	    0.034977	    0.034992	    0.069969	   -0.141681	   -0.181585	   -0.323266	   -0.026499	   -0.001754	   -0.028254	   -0.010812	    0.055295	    0.044484	   -0.065125	    0.025491	   -0.039635	    0.065591	    0.125210	    0.190800	    0.017927	    0.027994	    0.045920	    0.019866	   -0.046575	   -0.026709
     8.925	0	0	    0	    0.018260	    0.032698	    0.050958	    0.001561	    0.066716	    0.068276	   -0.048399	   -0.008485	   -0.056885	   -0.050015	   -0.015098	   -0.065113	    0.070924	    0.148687	    0.219611	    0.055042	    0.125018	    0.180059	    0.029759	   -0.035361	   -0.005602	   -0.022719	   -0.026890	   -0.049609	   -0.032918	   -0.021590	   -0.054508	    0.044820	    0.061477	    0.106297	   -0.059555	   -0.026877	   -0.086432	   -0.031826	    0.055274	    0.023448	    0.153253	    0.250411	    0.403663	   -0.011304	   -0.015420	   -0.026725	    0.033252	    0.054946	    0.088197	   -0.152353	   -0.184947	   -0.337300	   -0.045714	    0.007589	   -0.038126	   -0.014734	    0.049896	    0.035162	   -0.066045	    0.011631	   -0.054414	    0.051981	    0.118042	    0.170023	    0.009337	    0.022333	    0.031670	    0.041514	    0.000708	    0.042222
     9.000	0	0	    0	    0.027048	    0.037901	    0.064950	    0.006160	    0.064890	    0.071050	   -0.035906	   -0.010333	   -0.046239	   -0.048834	   -0.025447	   -0.074281	    0.066582	    0.129996	    0.196578	    0.053413	    0.131429	    0.184842	    0.022045	    0.025198	    0.047243	   -0.010755	   -0.028679	   -0.039434	   -0.029482	   -0.033093	   -0.062575	    0.040769	    0.061505	    0.102275	   -0.047386	   -0.029743	   -0.077129	   -0.030744	    0.044150	    0.013406	    0.151027	    0.217202	    0.368230	    0.003820	   -0.007982	   -0.004161	    0.070488	    0.044696	    0.115184	   -0.140109	   -0.190558	   -0.330668	   -0.029843	   -0.008250	   -0.038092	   -0.002009	    0.032273	    0.030264	   -0.058634	    0.008963	   -0.049671	    0.070316	    0.106297	    0.176613	    0.028737	    0.022249	    0.050986	    0.080374	    0.026027	    0.106400
     9.075	0	0	    0	    0.033984	    0.039097	    0.073081	    0.008271	    0.065509	    0.073779	   -0.045471	   -0.003491	   -0.048962	   -0.041844	   -0.022805	   -0.064648	    0.069187	    0.123665	    0.192853	    0.048883	    0.133623	    0.182506	   -0.006927	    0.028798	    0.021870	   -0.013381	   -0.008485	   -0.021866	   -0.013309	   -0.028109	   -0.041418	    0.037617	    0.076602	    0.114219	   -0.051047	   -0.023895	   -0.074942	   -0.025987	    0.044352	    0.018365	    0.171619	    0.213296	    0.384915	   -0.009862	   -0.008435	   -0.018297	    0.034266	    0.037181	    0.071447	   -0.123606	   -0.183023	   -0.306629	   -0.003426	   -0.021083	   -0.024508	   -0.005470	    0.031887	    0.026417	   -0.052319	    0.013528	   -0.038791	    0.078184	    0.115440	    0.193624	    0.038848	    0.026343	    0.065190	   -0.037082	    0.020885	   -0.016196
     9.150	0	0	    0	   -0.001387	    0.055407	    0.054021	    0.021173	    0.067180	    0.088353	   -0.042906	   -0.009956	   -0.052862	   -0.040908	   -0.013952	   -0.054860	    0.068838	    0.128679	    0.197517	    0.079964	    0.135709	    0.215672	   -0.006349	   -0.014903	   -0.021252	   -0.023202	   -0.022905	   -0.046107	    0.007483	   -0.017653	   -0.010170	    0.077147	    0.099549	    0.176696	   -0.040722	   -0.023847	   -0.064569	   -0.017072	    0.050713	    0.033641	    0.215300	    0.229993	    0.445293	   -0.011747	   -0.005322	   -0.017070	   -0.012762	    0.066772	    0.054010	   -0.093265	   -0.173293	   -0.266558	    0.009577	    0.014491	    0.024067	    0.051124	    0.065874	    0.116997	   -0.045325	    0.028353	   -0.016973	    0.106812	    0.136638	    0.243450	    0.065924	    0.037353	    0.103276	   -0.021078	   -0.088687	   -0.109766
     9.225	0	0	    0	    0.006115	    0.060149	    0.066264	    0.025614	    0.078045	    0.103659	   -0.041473	   -0.011012	   -0.052485	   -0.033289	   -0.012363	   -0.045652	    0.087906	    0.152092	    0.239998	    0.094391	    0.148796	    0.243187	   -0.029181	   -0.015044	   -0.044225	   -0.018320	   -0.019829	   -0.038150	    0.021504	   -0.000573	    0.020931	    0.037561	    0.118817	    0.156378	   -0.037385	   -0.013968	   -0.051353	   -0.007387	    0.067581	    0.060194	    0.223964	    0.284991	    0.508954	   -0.003870	   -0.016565	   -0.020435	    0.014363	    0.010431	    0.024794	   -0.084956	   -0.158428	   -0.243384	   -0.008853	    0.022214	    0.013361	    0.030666	    0.116961	    0.147627	   -0.043408	    0.031445	   -0.011963	    0.105076	    0.154556	    0.259632	    0.065164	    0.046790	    0.111954	   -0.057120	   -0.092992	   -0.150112
     9.300	0	0	    0	    0.019969	    0.047979	    0.067948	    0.032757	    0.076371	    0.109128	   -0.041030	   -0.013037	   -0.054067	   -0.028137	   -0.008289	   -0.036426	    0.098095	    0.160908	    0.259003	    0.113038	    0.143815	    0.256853	   -0.028858	   -0.039194	   -0.068052	   -0.015163	   -0.026200	   -0.041363	    0.029250	    0.000432	    0.029683	    0.069630	    0.083479	    0.153109	   -0.036864	   -0.010039	   -0.046902	   -0.005384	    0.068946	    0.063561	    0.227473	    0.283818	    0.511291	    0.007298	   -0.029078	   -0.021780	    0.024924	   -0.009270	    0.015654	   -0.081134	   -0.156078	   -0.237212	   -0.006979	    0.001905	   -0.005073	    0.027274	    0.125908	    0.153182	   -0.041643	    0.032106	   -0.009537	    0.113208	    0.148868	    0.262076	    0.071043	    0.042596	    0.113639	   -0.067550	   -0.126480	   -0.194030
     9.375	0	0	    0	    0.004654	    0.071766	    0.076421	    0.030764	    0.081939	    0.112703	   -0.048816	   -0.011516	   -0.060332	   -0.028793	   -0.002020	   -0.030813	    0.091783	    0.178968	    0.270751	    0.086871	    0.179510	    0.266382	   -0.064418	   -0.018263	   -0.082681	   -0.020495	   -0.020994	   -0.041489	    0.032017	    0.001603	    0.033620	    0.030050	    0.121605	    0.151654	   -0.040605	   -0.009631	   -0.050236	   -0.006450	    0.070814	    0.064364	    0.226589	    0.289639	    0.516229	   -0.002913	   -0.028351	   -0.031264	    0.017821	   -0.009029	    0.008792	   -0.079405	   -0.157828	   -0.237233	   -0.002073	   -0.002593	   -0.004666	    0.030839	    0.119066	    0.149905	   -0.038567	    0.032953	   -0.005615	    0.118333	    0.150683	    0.269015	    0.072972	    0.045080	    0.118052	   -0.052994	   -0.147110	   -0.200104
     9.450	0	0	    0	    0.044513	    0.031574	    0.076088	    0.032067	    0.085226	    0.117293	   -0.043485	   -0.007785	   -0.051270	   -0.023701	   -0.003561	   -0.027262	    0.104187	    0.173549	    0.277736	    0.079075	    0.180984	    0.260058	   -0.039380	   -0.012789	   -0.052170	   -0.007220	   -0.030821	   -0.038041	    0.030626	    0.004411	    0.035037	    0.044296	    0.085745	    0.130041	   -0.041218	   -0.011316	   -0.052534	   -0.007503	    0.070120	    0.062617	    0.208173	    0.282998	    0.491171	   -0.003501	   -0.037027	   -0.040528	    0.015377	   -0.005984	    0.009392	   -0.088272	   -0.161862	   -0.250133	   -0.016638	    0.010116	   -0.006522	    0.027801	    0.126357	    0.154159	   -0.041024	    0.033776	   -0.007248	    0.113272	    0.148695	    0.261967	    0.049197	    0.037837	    0.087034	   -0.039587	   -0.129655	   -0.169242
     9.525	0	0	    0	   -0.001738	    0.073173	    0.071435	    0.028151	    0.088650	    0.116801	   -0.050591	   -0.003252	   -0.053843	   -0.029208	   -0.001640	   -0.030848	    0.090857	    0.185918	    0.276776	    0.071319	    0.174534	    0.245854	   -0.025730	   -0.008996	   -0.034725	   -0.015009	   -0.018245	   -0.033254	    0.033108	    0.002324	    0.035431	    0.012438	    0.134951	    0.147389	   -0.043208	   -0.010198	   -0.053406	   -0.008072	    0.068157	    0.060084	    0.198322	    0.283024	    0.481346	   -0.010756	   -0.009636	   -0.020392	    0.064704	    0.028777	    0.093482	   -0.093480	   -0.164341	   -0.257821	   -0.019406	    0.010237	   -0.009170	    0.043391	    0.105203	    0.148594	   -0.040655	    0.031977	   -0.008678	    0.108038	    0.143530	    0.251568	    0.044840	    0.028654	    0.073494	    0.010449	   -0.096105	   -0.085656
     9.600	0	0	    0	    0.003365	    0.072268	    0.075633	    0.036178	    0.088382	    0.124560	   -0.054643	   -0.006415	   -0.061058	   -0.030657	   -0.001873	   -0.032530	    0.085660	    0.187601	    0.273262	    0.065639	    0.165966	    0.231605	   -0.016641	   -0.035149	   -0.051790	   -0.023181	   -0.016805	   -0.039986	    0.038453	    0.008817	    0.047271	    0.015239	    0.125293	    0.140531	   -0.044776	   -0.007585	   -0.052361	   -0.003914	    0.070793	    0.066878	    0.188181	    0.283333	    0.471514	   -0.006096	   -0.013156	   -0.019252	    0.063914	    0.029862	    0.093777	   -0.093151	   -0.164621	   -0.257772	   -0.024615	    0.013463	   -0.011152	    0.044309	    0.106983	    0.151292	   -0.038368	    0.034225	   -0.004143	    0.100983	    0.147708	    0.248691	    0.041266	    0.032134	    0.073400	    0.057915	   -0.053069	    0.004846
     9.675	0	0	    0	    0.007621	    0.050488	    0.058109	    0.038018	    0.091369	    0.129387	   -0.058136	   -0.008368	   -0.066504	   -0.037237	    0.001459	   -0.035778	    0.078268	    0.192112	    0.270380	    0.043787	    0.163160	    0.206947	   -0.072454	   -0.025499	   -0.097952	   -0.030685	   -0.019848	   -0.050533	    0.033355	    0.020828	    0.054183	    0.019689	    0.109404	    0.129093	   -0.047457	   -0.006316	   -0.053773	   -0.000220	    0.079291	    0.079071	    0.183523	    0.289273	    0.472795	   -0.020446	   -0.015625	   -0.036071	    0.026945	    0.053709	    0.080655	   -0.112239	   -0.156184	   -0.268423	   -0.024999	    0.026371	    0.001372	    0.023417	    0.131248	    0.154665	   -0.038656	    0.037053	   -0.001602	    0.095303	    0.148152	    0.243455	    0.040871	    0.039337	    0.080208	    0.025887	    0.000221	    0.026109
     9.750	0	0	    0	    0.002840	    0.056507	    0.059348	    0.032929	    0.097034	    0.129963	   -0.059492	   -0.008792	   -0.068284	   -0.040733	    0.003696	   -0.037037	    0.069836	    0.198837	    0.268673	    0.053644	    0.161948	    0.215593	   -0.085594	   -0.038023	   -0.123618	   -0.031849	   -0.021359	   -0.053208	    0.023269	    0.028836	    0.052105	   -0.001003	    0.101498	    0.100495	   -0.047909	   -0.006259	   -0.054168	   -0.002717	    0.085080	    0.082363	    0.189240	    0.300858	    0.490098	   -0.018876	   -0.031061	   -0.049937	    0.046291	    0.032136	    0.078428	   -0.126584	   -0.157350	   -0.283934	   -0.033323	    0.012826	   -0.020498	    0.011956	    0.120220	    0.132175	   -0.041661	    0.038021	   -0.003639	    0.095990	    0.143945	    0.239936	    0.043362	    0.041443	    0.084806	   -0.018225	   -0.041349	   -0.059574
     9.825	0	0	    0	    0.001325	    0.049931	    0.051256	    0.031747	    0.088672	    0.120419	   -0.057038	   -0.017731	   -0.074769	   -0.041935	    0.000006	   -0.041929	    0.080861	    0.192349	    0.273210	    0.077256	    0.162219	    0.239475	   -0.061321	   -0.058297	   -0.119617	   -0.043613	   -0.031620	   -0.075233	    0.008105	    0.023924	    0.032029	    0.021880	    0.049715	    0.071594	   -0.049543	   -0.007694	   -0.057237	   -0.002768	    0.081882	    0.079113	    0.209011	    0.306706	    0.515716	   -0.033928	   -0.023050	   -0.056979	   -0.035650	    0.070755	    0.035105	   -0.132576	   -0.160025	   -0.292600	   -0.048774	   -0.003642	   -0.052416	    0.004276	    0.120300	    0.124575	   -0.041441	    0.036944	   -0.004497	    0.109773	    0.145263	    0.255036	    0.051238	    0.038379	    0.089617	   -0.049756	   -0.084563	   -0.134319
     9.900	0	0	    0	   -0.005254	    0.064571	    0.059317	    0.027987	    0.087219	    0.115206	   -0.054918	   -0.020346	   -0.075263	   -0.042588	   -0.001465	   -0.044053	    0.089147	    0.196187	    0.285334	    0.083540	    0.166313	    0.249854	   -0.079590	   -0.029700	   -0.109290	   -0.037644	   -0.034552	   -0.072196	    0.005768	    0.014217	    0.019984	    0.000151	    0.070508	    0.070659	   -0.053361	   -0.009518	   -0.062879	   -0.001646	    0.080864	    0.079218	    0.218492	    0.305438	    0.523930	   -0.025876	   -0.036252	   -0.062128	   -0.001263	    0.008577	    0.007314	   -0.129997	   -0.160379	   -0.290376	   -0.050467	   -0.006077	   -0.056544	    0.009895	    0.105639	    0.115534	   -0.040642	    0.037381	   -0.003261	    0.122084	    0.146894	    0.268977	    0.058004	    0.032477	    0.090481	   -0.056045	   -0.118943	   -0.174988
