 [File Information]      		 [Data Line]	36
Measured Date	2024/05/27 094845
ID		Version	11.0
Name	oceane_1	[HeaderType]	11.0/11.0
Comment	
[Measurement Info.]
Holder Location	       0
Block Design	Off     
Pre.Rest Time	       0
Task Time	       0
Pos.Rest Time	       0
Loop	       0
Averaging	       1
Total Points	     822
[.INF File]
Filename	Cognitive1.INF
[Condition-1]
HV Switching	OFF
 R1 ,R2 ,R3 ,R4 ,R5 ,R6 ,R7 ,R8 
 120.00, 70.00,120.00,100.00, 90.00, 70.00,120.00,120.00
 Gain(X1,X4,X16,X64)
 R1 ,R2 ,R3 ,R4 ,R5 ,R6 ,R7 ,R8 
 1,1,1,1,1,1,1,1
[Analysis Condition]
Smoothed Type	None            
Smoothed Points	       0
Smoothed Loop	       0
Baseline Method	None            
Baseline location	
[Text Info.]
Output Mode	Continious      	Task No.		Data Type	Hb      
Time Range	    0.00	   61.58	Averaing	1
(1,3)(5,3)(5,7)(2,7)(2,4)(6,4)(6,8)(1,1)(3,3)(5,5)(7,7)(2,2)(4,4)(6,6)(8,8)(3,1)(3,5)(7,5)(7,2)(4,2)(4,6)(8,6)
         	     	     	     	    ch- 1	    ch- 1	    ch- 1	    ch- 2	    ch- 2	    ch- 2	    ch- 3	    ch- 3	    ch- 3	    ch- 4	    ch- 4	    ch- 4	    ch- 5	    ch- 5	    ch- 5	    ch- 6	    ch- 6	    ch- 6	    ch- 7	    ch- 7	    ch- 7	    ch- 8	    ch- 8	    ch- 8	    ch- 9	    ch- 9	    ch- 9	    ch-10	    ch-10	    ch-10	    ch-11	    ch-11	    ch-11	    ch-12	    ch-12	    ch-12	    ch-13	    ch-13	    ch-13	    ch-14	    ch-14	    ch-14	    ch-15	    ch-15	    ch-15	    ch-16	    ch-16	    ch-16	    ch-17	    ch-17	    ch-17	    ch-18	    ch-18	    ch-18	    ch-19	    ch-19	    ch-19	    ch-20	    ch-20	    ch-20	    ch-21	    ch-21	    ch-21	    ch-22	    ch-22	    ch-22
Time(sec)	Task	Mark	Count	    oxyHb   	  deoxyHb	  totalHb	    oxyHb   	  deoxyHb	  totalHb	    oxyHb   	  deoxyHb	  totalHb	    oxyHb   	  deoxyHb	  totalHb	    oxyHb   	  deoxyHb	  totalHb	    oxyHb   	  deoxyHb	  totalHb	    oxyHb   	  deoxyHb	  totalHb	    oxyHb   	  deoxyHb	  totalHb	    oxyHb   	  deoxyHb	  totalHb	    oxyHb   	  deoxyHb	  totalHb	    oxyHb   	  deoxyHb	  totalHb	    oxyHb   	  deoxyHb	  totalHb	    oxyHb   	  deoxyHb	  totalHb	    oxyHb   	  deoxyHb	  totalHb	    oxyHb   	  deoxyHb	  totalHb	    oxyHb   	  deoxyHb	  totalHb	    oxyHb   	  deoxyHb	  totalHb	    oxyHb   	  deoxyHb	  totalHb	    oxyHb   	  deoxyHb	  totalHb	    oxyHb   	  deoxyHb	  totalHb	    oxyHb   	  deoxyHb	  totalHb	    oxyHb   	  deoxyHb	  totalHb
     0.000	0	0Z	    0	    0.000000	    0.000000	    0.000000	    0.000000	    0.000000	    0.000000	    0.000000	    0.000000	    0.000000	    0.000000	    0.000000	    0.000000	    0.000000	    0.000000	    0.000000	    0.000000	    0.000000	    0.000000	    0.000000	    0.000000	    0.000000	    0.000000	    0.000000	    0.000000	    0.000000	    0.000000	    0.000000	    0.000000	    0.000000	    0.000000	    0.000000	    0.000000	    0.000000	    0.000000	    0.000000	    0.000000	    0.000000	    0.000000	    0.000000	    0.000000	    0.000000	    0.000000	    0.000000	    0.000000	    0.000000	    0.000000	    0.000000	    0.000000	    0.000000	    0.000000	    0.000000	    0.000000	    0.000000	    0.000000	    0.000000	    0.000000	    0.000000	    0.000000	    0.000000	    0.000000	    0.000000	    0.000000	    0.000000	    0.000000	    0.000000	    0.000000
     0.075	0	0	    0	   -0.010351	    0.014071	    0.003720	   -0.000765	   -0.001846	   -0.002611	   -0.002418	    0.006133	    0.003715	    0.001086	   -0.003884	   -0.002798	   -0.003251	    0.008596	    0.005345	   -0.006712	    0.004441	   -0.002271	   -0.005121	    0.009140	    0.004019	   -0.002051	    0.000359	   -0.001692	   -0.001789	   -0.001235	   -0.003024	    0.000647	   -0.001176	   -0.000529	   -0.000700	   -0.000289	   -0.000989	   -0.003793	   -0.003858	   -0.007651	    0.004210	   -0.002376	    0.001834	    0.001498	    0.000190	    0.001689	   -0.006830	    0.005380	   -0.001450	    0.000290	   -0.001803	   -0.001513	    0.000977	   -0.000575	    0.000402	    0.001769	    0.000923	    0.002692	   -0.000942	   -0.002807	   -0.003748	   -0.001582	   -0.001117	   -0.002699	    0.002263	   -0.000662	    0.001601	   -0.002285	    0.006225	    0.003940
     0.150	0	0	    0	   -0.015759	    0.010263	   -0.005496	   -0.003653	   -0.000432	   -0.004084	   -0.004485	    0.016230	    0.011745	    0.000078	   -0.003475	   -0.003397	   -0.008199	    0.007631	   -0.000567	   -0.017061	    0.008060	   -0.009001	   -0.011590	    0.024837	    0.013247	   -0.002439	    0.002238	   -0.000201	   -0.004044	   -0.004454	   -0.008497	   -0.002304	    0.001870	   -0.000433	    0.002298	   -0.001806	    0.000492	   -0.003107	   -0.006309	   -0.009416	   -0.000464	   -0.002355	   -0.002819	   -0.000719	    0.001825	    0.001106	    0.007519	   -0.005126	    0.002393	   -0.001071	   -0.002732	   -0.003803	   -0.000035	    0.000581	    0.000546	    0.001897	    0.002013	    0.003910	   -0.001373	   -0.005354	   -0.006727	   -0.002750	   -0.007584	   -0.010334	    0.001868	   -0.000512	    0.001356	   -0.003004	    0.003581	    0.000576
     0.225	0	0	    0	   -0.017237	    0.014963	   -0.002274	   -0.003888	   -0.002470	   -0.006358	   -0.000616	    0.009044	    0.008429	   -0.004271	   -0.001375	   -0.005646	   -0.010089	    0.007736	   -0.002353	   -0.015654	    0.005474	   -0.010180	   -0.012074	    0.020110	    0.008036	   -0.011737	    0.000981	   -0.010755	   -0.003331	   -0.005434	   -0.008765	   -0.004150	    0.001002	   -0.003148	    0.000321	    0.000166	    0.000486	   -0.014941	   -0.006034	   -0.020974	    0.002412	   -0.009163	   -0.006751	   -0.000985	    0.003317	    0.002331	   -0.008175	    0.004315	   -0.003859	   -0.001877	   -0.001886	   -0.003763	   -0.000795	   -0.000678	   -0.001473	    0.002722	    0.000682	    0.003404	   -0.002821	   -0.006046	   -0.008867	   -0.003224	   -0.008744	   -0.011968	    0.000705	    0.001135	    0.001840	   -0.010507	    0.010851	    0.000343
     0.300	0	0	    0	   -0.002061	   -0.005182	   -0.007243	   -0.012061	   -0.013148	   -0.025209	    0.012733	    0.014798	    0.027531	    0.004970	   -0.010023	   -0.005053	   -0.021402	   -0.028226	   -0.049628	   -0.035136	    0.002739	   -0.032397	    0.012706	    0.019240	    0.031946	   -0.010418	   -0.009687	   -0.020105	   -0.030392	   -0.014710	   -0.045102	   -0.000005	   -0.002750	   -0.002755	   -0.002132	   -0.007332	   -0.009464	   -0.019848	   -0.035832	   -0.055680	   -0.030408	   -0.019190	   -0.049598	    0.003459	   -0.001052	    0.002407	   -0.004901	    0.000237	   -0.004664	   -0.013912	   -0.010719	   -0.024631	   -0.003031	   -0.001033	   -0.004063	    0.015514	    0.006876	    0.022389	   -0.023707	   -0.027713	   -0.051420	   -0.046668	   -0.010442	   -0.057110	   -0.002049	   -0.008334	   -0.010383	   -0.015858	    0.010011	   -0.005847
     0.375	0	0	    0	    0.000577	    0.011174	    0.011751	   -0.006974	   -0.019062	   -0.026036	    0.030383	    0.018326	    0.048709	    0.025523	   -0.002208	    0.023314	   -0.039286	   -0.028430	   -0.067716	   -0.021965	   -0.028820	   -0.050784	    0.045259	    0.045314	    0.090574	    0.004816	   -0.003265	    0.001551	   -0.044266	   -0.036469	   -0.080735	   -0.005512	   -0.008154	   -0.013666	    0.010493	   -0.011989	   -0.001496	   -0.014848	   -0.045685	   -0.060533	   -0.144135	   -0.085338	   -0.229473	    0.022076	    0.013072	    0.035148	    0.039655	   -0.001439	    0.038215	   -0.014554	   -0.018877	   -0.033430	   -0.010782	   -0.009196	   -0.019978	    0.024156	    0.010898	    0.035055	   -0.031391	   -0.047267	   -0.078658	   -0.152924	   -0.060705	   -0.213629	   -0.087457	   -0.015779	   -0.103236	    0.053728	    0.012805	    0.066534
     0.450	0	0	    0	    0.015166	    0.026881	    0.042047	    0.003307	   -0.009648	   -0.006342	    0.047636	    0.034118	    0.081754	    0.041476	    0.023906	    0.065382	   -0.040937	   -0.051930	   -0.092867	   -0.052598	   -0.000526	   -0.053124	    0.091108	    0.113955	    0.205062	    0.015259	    0.024924	    0.040183	   -0.050161	   -0.047459	   -0.097620	   -0.020225	   -0.024697	   -0.044923	    0.032440	   -0.000939	    0.031500	   -0.002571	   -0.026802	   -0.029373	   -0.268318	   -0.232914	   -0.501231	    0.059123	    0.042639	    0.101762	    0.106011	    0.025003	    0.131014	   -0.004382	   -0.005940	   -0.010322	   -0.032397	   -0.023482	   -0.055879	    0.024634	    0.006064	    0.030697	   -0.013813	   -0.058308	   -0.072121	   -0.268630	   -0.222715	   -0.491345	   -0.181035	   -0.145329	   -0.326364	    0.105660	    0.061396	    0.167057
     0.525	0	0	    0	    0.024877	    0.014606	    0.039483	    0.006197	   -0.004161	    0.002036	    0.054758	    0.043231	    0.097989	    0.043006	    0.029224	    0.072229	   -0.026517	   -0.050830	   -0.077347	   -0.040150	   -0.017447	   -0.057597	    0.093954	    0.137650	    0.231604	    0.020004	    0.021069	    0.041072	   -0.048834	   -0.043574	   -0.092408	   -0.010835	   -0.034229	   -0.045064	    0.022276	    0.023002	    0.045278	    0.009677	   -0.021777	   -0.012101	   -0.238960	   -0.275572	   -0.514532	    0.087714	    0.050382	    0.138096	    0.099918	    0.044098	    0.144016	   -0.004535	    0.003945	   -0.000591	   -0.023974	   -0.038207	   -0.062180	    0.024040	    0.008978	    0.033017	   -0.017430	   -0.047437	   -0.064866	   -0.236122	   -0.243598	   -0.479720	   -0.151046	   -0.160966	   -0.312012	    0.117773	    0.107829	    0.225602
     0.600	0	0	    0	    0.032830	    0.027439	    0.060269	    0.009228	   -0.010514	   -0.001286	    0.060519	    0.043798	    0.104317	    0.049016	    0.022678	    0.071693	   -0.022148	   -0.033848	   -0.055996	   -0.009657	   -0.028279	   -0.037936	    0.135077	    0.114115	    0.249192	    0.043614	    0.022724	    0.066338	   -0.054629	   -0.040388	   -0.095017	   -0.004524	   -0.034240	   -0.038764	    0.023301	    0.010550	    0.033851	    0.023707	   -0.013273	    0.010435	   -0.221620	   -0.259040	   -0.480661	    0.093217	    0.058230	    0.151447	    0.066642	    0.071109	    0.137751	   -0.012774	    0.004497	   -0.008277	   -0.014494	   -0.034037	   -0.048531	    0.027538	    0.001379	    0.028917	   -0.006582	   -0.053336	   -0.059918	   -0.218628	   -0.225186	   -0.443815	   -0.146948	   -0.147679	   -0.294627	    0.104407	    0.091932	    0.196338
     0.675	0	0	    0	    0.048217	    0.033073	    0.081290	    0.009549	   -0.010114	   -0.000565	    0.065553	    0.040980	    0.106533	    0.047074	    0.026797	    0.073871	   -0.000222	   -0.036516	   -0.036738	   -0.020952	   -0.001599	   -0.022551	    0.145483	    0.103373	    0.248856	    0.045525	    0.047614	    0.093139	   -0.057805	   -0.050813	   -0.108618	   -0.002680	   -0.039463	   -0.042143	    0.032609	    0.001305	    0.033914	    0.037075	   -0.010162	    0.026913	   -0.210512	   -0.249284	   -0.459796	    0.076100	    0.075012	    0.151112	    0.027888	    0.054778	    0.082666	   -0.011219	   -0.006385	   -0.017604	   -0.011898	   -0.036229	   -0.048127	    0.035862	   -0.009045	    0.026817	    0.008719	   -0.055580	   -0.046861	   -0.194340	   -0.213858	   -0.408199	   -0.130844	   -0.148948	   -0.279793	    0.068644	    0.075093	    0.143737
     0.750	0	0	    0	    0.034973	    0.031522	    0.066494	    0.003947	   -0.014939	   -0.010992	    0.057726	    0.037593	    0.095319	    0.019772	    0.009611	    0.029383	    0.009215	   -0.027664	   -0.018449	   -0.027621	    0.009728	   -0.017893	    0.095575	    0.135792	    0.231367	    0.035151	    0.042989	    0.078140	   -0.058409	   -0.050418	   -0.108827	    0.008495	   -0.036908	   -0.028414	    0.016826	   -0.000934	    0.015892	    0.044143	   -0.005504	    0.038639	   -0.188543	   -0.239956	   -0.428498	    0.072406	    0.054199	    0.126605	    0.055812	    0.014749	    0.070561	   -0.010057	   -0.002448	   -0.012504	   -0.005046	   -0.035305	   -0.040351	    0.019321	   -0.009284	    0.010038	    0.005319	   -0.047728	   -0.042408	   -0.169757	   -0.201625	   -0.371382	   -0.126963	   -0.142776	   -0.269739	    0.023421	    0.043968	    0.067389
     0.825	0	0	    0	    0.012407	    0.011505	    0.023911	    0.014622	   -0.019396	   -0.004775	    0.039594	    0.007690	    0.047284	    0.006708	   -0.018115	   -0.011407	    0.009740	   -0.026690	   -0.016950	   -0.003071	   -0.013271	   -0.016342	    0.088496	    0.067806	    0.156302	    0.019709	    0.016941	    0.036650	   -0.017736	   -0.045266	   -0.063002	    0.010653	   -0.031930	   -0.021277	    0.003900	   -0.013436	   -0.009536	    0.042363	    0.008963	    0.051326	   -0.163945	   -0.234416	   -0.398361	    0.060255	    0.032464	    0.092719	    0.055322	    0.007701	    0.063024	    0.007136	   -0.006270	    0.000867	    0.002229	   -0.025907	   -0.023677	   -0.004376	   -0.019006	   -0.023382	   -0.011163	   -0.033888	   -0.045051	   -0.151228	   -0.179610	   -0.330838	   -0.142681	   -0.150674	   -0.293355	    0.026699	    0.013815	    0.040514
     0.900	0	0	    0	    0.030543	   -0.004189	    0.026353	    0.014679	   -0.005889	    0.008790	    0.018360	    0.005705	    0.024065	    0.004798	   -0.020961	   -0.016163	    0.026954	   -0.032408	   -0.005454	    0.005435	   -0.006774	   -0.001340	    0.035385	    0.077321	    0.112705	    0.015697	    0.009101	    0.024798	    0.010572	   -0.019394	   -0.008822	    0.006945	   -0.023264	   -0.016319	   -0.000082	   -0.012342	   -0.012424	    0.018704	    0.022472	    0.041175	   -0.147983	   -0.202250	   -0.350234	    0.036738	    0.030394	    0.067132	    0.054095	    0.009231	    0.063326	    0.015482	   -0.002280	    0.013203	    0.005221	   -0.022281	   -0.017060	   -0.004558	   -0.019104	   -0.023662	   -0.016410	   -0.021473	   -0.037883	   -0.148410	   -0.152261	   -0.300671	   -0.152088	   -0.162475	   -0.314563	    0.027618	    0.010352	    0.037970
     0.975	0	0	    0	    0.042586	   -0.004586	    0.038000	    0.010112	   -0.007612	    0.002499	    0.043279	    0.009327	    0.052606	    0.033707	   -0.022482	    0.011225	   -0.047682	   -0.088285	   -0.135967	   -0.039992	    0.019875	   -0.020117	    0.109924	    0.068394	    0.178318	    0.024259	   -0.000565	    0.023693	   -0.035430	   -0.004553	   -0.039983	   -0.000398	   -0.025619	   -0.026017	    0.012117	   -0.022388	   -0.010271	    0.030092	   -0.021934	    0.008158	   -0.205708	   -0.185140	   -0.390848	    0.066034	    0.022284	    0.088318	    0.104287	    0.038154	    0.142441	   -0.006466	   -0.003126	   -0.009593	    0.003763	   -0.015689	   -0.011926	    0.028478	   -0.008237	    0.020240	   -0.013511	   -0.049413	   -0.062923	   -0.188072	   -0.147736	   -0.335808	   -0.142852	   -0.183744	   -0.326596	    0.104329	    0.043662	    0.147991
     1.050	0	0	    0	    0.027845	    0.042771	    0.070616	    0.025603	   -0.001807	    0.023797	    0.065453	    0.024167	    0.089620	    0.044848	    0.003373	    0.048221	   -0.043721	   -0.095417	   -0.139138	   -0.020578	   -0.028428	   -0.049006	    0.129157	    0.151623	    0.280780	    0.020405	    0.021519	    0.041924	   -0.050099	   -0.047574	   -0.097674	   -0.012245	   -0.044701	   -0.056946	    0.035058	   -0.002371	    0.032687	    0.037514	   -0.005225	    0.032290	   -0.229222	   -0.289032	   -0.518255	    0.093312	    0.058534	    0.151846	    0.130196	    0.050652	    0.180848	   -0.008671	   -0.005175	   -0.013846	   -0.018476	   -0.030474	   -0.048950	    0.028041	   -0.004965	    0.023076	    0.012091	   -0.041670	   -0.029579	   -0.189056	   -0.207797	   -0.396853	   -0.154979	   -0.157920	   -0.312899	    0.150269	    0.112770	    0.263040
     1.125	0	0	    0	    0.000028	    0.039656	    0.039683	    0.031593	   -0.000183	    0.031410	    0.061571	    0.040545	    0.102116	    0.026205	    0.014847	    0.041052	   -0.045930	   -0.098963	   -0.144893	   -0.021877	   -0.022502	   -0.044379	    0.123170	    0.162763	    0.285933	    0.008870	    0.020386	    0.029256	   -0.044643	   -0.049877	   -0.094519	   -0.010984	   -0.055263	   -0.066247	    0.032284	    0.005927	    0.038211	    0.035958	   -0.003077	    0.032881	   -0.216118	   -0.300587	   -0.516705	    0.077643	    0.071090	    0.148733	    0.129190	    0.063737	    0.192927	   -0.013614	    0.000888	   -0.012727	   -0.023844	   -0.047373	   -0.071217	    0.019772	   -0.012207	    0.007565	    0.012814	   -0.038380	   -0.025566	   -0.191387	   -0.210201	   -0.401588	   -0.160607	   -0.161279	   -0.321886	    0.145714	    0.142741	    0.288455
     1.200	0	0	    0	   -0.022178	   -0.018977	   -0.041154	    0.027532	   -0.002103	    0.025429	    0.026902	    0.034466	    0.061368	   -0.013535	   -0.027018	   -0.040553	   -0.058760	   -0.131677	   -0.190437	   -0.016948	   -0.044239	   -0.061187	    0.099075	    0.138639	    0.237714	   -0.011801	   -0.010621	   -0.022423	   -0.024818	   -0.045217	   -0.070035	   -0.011912	   -0.054542	   -0.066454	    0.007288	   -0.002630	    0.004658	    0.040632	   -0.008080	    0.032553	   -0.208771	   -0.306694	   -0.515465	    0.051093	    0.065622	    0.116715	    0.105996	    0.084397	    0.190393	   -0.023555	   -0.003074	   -0.026629	   -0.027676	   -0.054275	   -0.081951	   -0.011913	   -0.016700	   -0.028613	   -0.003932	   -0.033252	   -0.037184	   -0.194892	   -0.219678	   -0.414569	   -0.177609	   -0.158981	   -0.336590	    0.145830	    0.150869	    0.296700
     1.275	0	0	    0	   -0.010288	   -0.039396	   -0.049684	    0.032678	   -0.001958	    0.030720	    0.009844	    0.005665	    0.015509	   -0.023954	   -0.047238	   -0.071192	   -0.055773	   -0.136984	   -0.192757	   -0.019147	   -0.083200	   -0.102347	    0.062413	    0.106396	    0.168809	    0.005237	   -0.011388	   -0.006151	    0.005709	   -0.028828	   -0.023119	   -0.013327	   -0.047157	   -0.060484	    0.004143	   -0.011768	   -0.007624	    0.040172	    0.006562	    0.046734	   -0.199111	   -0.309496	   -0.508607	    0.026711	    0.044470	    0.071181	    0.124560	    0.062881	    0.187442	   -0.012549	   -0.006634	   -0.019183	   -0.027129	   -0.045489	   -0.072618	   -0.016619	   -0.023210	   -0.039829	   -0.013260	   -0.023180	   -0.036439	   -0.190373	   -0.190091	   -0.380464	   -0.182878	   -0.158422	   -0.341300	    0.140643	    0.150034	    0.290677
     1.350	0	0	    0	   -0.008599	   -0.018741	   -0.027340	    0.027807	    0.009670	    0.037477	   -0.004782	    0.005541	    0.000759	   -0.046514	   -0.053006	   -0.099520	   -0.032368	   -0.113096	   -0.145464	   -0.012442	   -0.092843	   -0.105286	    0.023728	    0.089115	    0.112843	    0.011328	    0.006606	    0.017934	    0.027006	   -0.002569	    0.024437	   -0.008155	   -0.036701	   -0.044856	   -0.012508	   -0.002838	   -0.015346	    0.039641	    0.016737	    0.056378	   -0.183731	   -0.293516	   -0.477247	    0.022779	    0.015924	    0.038703	    0.110193	    0.050953	    0.161147	   -0.005255	    0.004889	   -0.000365	   -0.023090	   -0.035977	   -0.059067	   -0.023628	   -0.017431	   -0.041059	   -0.025438	   -0.011383	   -0.036821	   -0.195543	   -0.173091	   -0.368633	   -0.199624	   -0.160229	   -0.359852	    0.060180	    0.113663	    0.173843
     1.425	0	0	    0	   -0.010058	   -0.001820	   -0.011878	    0.017490	    0.003691	    0.021181	   -0.010527	   -0.005424	   -0.015952	   -0.038709	   -0.061108	   -0.099817	   -0.021105	   -0.076072	   -0.097176	   -0.001286	   -0.065128	   -0.066414	    0.022740	    0.040446	    0.063186	    0.008568	    0.008646	    0.017214	    0.032252	    0.010557	    0.042809	    0.065899	   -0.009881	    0.056017	   -0.007995	   -0.015448	   -0.023442	    0.040221	    0.026800	    0.067020	   -0.182710	   -0.215962	   -0.398672	   -0.009348	    0.025304	    0.015956	    0.033890	    0.067771	    0.101662	    0.008553	    0.013201	    0.021755	    0.013721	   -0.025639	   -0.011919	    0.037600	   -0.002266	    0.035334	   -0.022906	   -0.012868	   -0.035774	   -0.158300	   -0.151224	   -0.309525	   -0.188690	   -0.149984	   -0.338674	    0.007978	    0.053715	    0.061693
     1.500	0	0	    0	   -0.001444	    0.011736	    0.010291	    0.003442	    0.005295	    0.008737	   -0.024097	    0.003946	   -0.020151	   -0.033119	   -0.059586	   -0.092705	   -0.013908	   -0.044759	   -0.058667	   -0.003818	   -0.009233	   -0.013051	   -0.023102	    0.080566	    0.057464	    0.004465	   -0.003959	    0.000505	    0.014379	    0.002137	    0.016516	    0.096621	    0.085796	    0.182417	   -0.007932	   -0.015400	   -0.023333	    0.041666	    0.028080	    0.069746	   -0.165984	   -0.209877	   -0.375861	   -0.010636	   -0.015348	   -0.025985	    0.077671	    0.013435	    0.091106	   -0.002699	   -0.002795	   -0.005493	    0.060422	    0.038303	    0.098725	    0.062491	    0.071077	    0.133568	   -0.015193	   -0.009217	   -0.024410	   -0.116948	   -0.124467	   -0.241416	   -0.168569	   -0.181897	   -0.350467	   -0.013508	   -0.002959	   -0.016467
     1.575	0	0	    0	    0.009100	    0.003421	    0.012521	    0.015597	   -0.005443	    0.010153	   -0.012924	   -0.006245	   -0.019169	   -0.026670	   -0.059621	   -0.086291	   -0.002486	   -0.043003	   -0.045489	    0.014520	   -0.010113	    0.004407	    0.021845	    0.042342	    0.064187	    0.010611	   -0.013704	   -0.003092	    0.024226	   -0.009900	    0.014327	    0.100914	    0.093891	    0.194805	   -0.006069	   -0.017390	   -0.023459	    0.046142	    0.028784	    0.074926	   -0.150781	   -0.193753	   -0.344534	   -0.005915	   -0.020994	   -0.026909	    0.078452	    0.018747	    0.097199	    0.004783	   -0.025054	   -0.020271	    0.070907	    0.061307	    0.132214	    0.065240	    0.077410	    0.142650	   -0.005791	   -0.004428	   -0.010219	   -0.097962	   -0.101176	   -0.199138	   -0.161475	   -0.174754	   -0.336229	   -0.003019	   -0.015396	   -0.018415
     1.650	0	0	    0	   -0.009570	    0.020014	    0.010444	    0.018064	   -0.002968	    0.015096	   -0.000286	   -0.012076	   -0.012362	   -0.025666	   -0.055878	   -0.081544	   -0.042768	   -0.033174	   -0.075942	    0.010079	   -0.009385	    0.000694	    0.026384	    0.033550	    0.059935	   -0.001484	    0.001323	   -0.000161	    0.031978	   -0.008857	    0.023121	    0.100608	    0.096543	    0.197150	   -0.007279	   -0.014978	   -0.022257	    0.024650	    0.032847	    0.057496	   -0.136441	   -0.192260	   -0.328701	   -0.002511	   -0.021008	   -0.023519	    0.072172	    0.029709	    0.101880	    0.012680	   -0.030925	   -0.018245	    0.078935	    0.063681	    0.142616	    0.068291	    0.076672	    0.144963	   -0.000425	   -0.001294	   -0.001719	   -0.086326	   -0.099415	   -0.185742	   -0.159891	   -0.176727	   -0.336618	    0.034137	    0.004697	    0.038835
     1.725	0	0	    0	    0.005032	   -0.000445	    0.004587	    0.010293	   -0.016005	   -0.005712	    0.037831	   -0.000029	    0.037801	   -0.008031	   -0.060905	   -0.068935	   -0.074692	   -0.145446	   -0.220138	   -0.032540	   -0.057461	   -0.090001	    0.105900	    0.067628	    0.173527	    0.011761	   -0.006940	    0.004821	   -0.025762	   -0.004291	   -0.030053	    0.057649	    0.083763	    0.141412	   -0.011386	   -0.030513	   -0.041899	    0.021062	   -0.026132	   -0.005070	   -0.218035	   -0.217753	   -0.435789	    0.030515	   -0.011796	    0.018719	    0.137312	    0.052753	    0.190066	    0.000911	   -0.030851	   -0.029940	    0.067037	    0.078941	    0.145977	    0.072588	    0.081624	    0.154211	   -0.006076	   -0.017182	   -0.023258	   -0.142435	   -0.088700	   -0.231135	   -0.159205	   -0.189519	   -0.348724	    0.102688	    0.057914	    0.160602
     1.800	0	0	    0	   -0.004885	    0.019107	    0.014222	    0.020067	   -0.017223	    0.002844	    0.063043	    0.013516	    0.076559	    0.012672	   -0.045837	   -0.033165	   -0.068009	   -0.167395	   -0.235404	   -0.011835	   -0.110214	   -0.122049	    0.141789	    0.122383	    0.264171	    0.022941	    0.016725	    0.039666	   -0.041916	   -0.056939	   -0.098855	    0.035610	    0.017858	    0.053468	    0.013451	   -0.022888	   -0.009437	    0.033967	   -0.020235	    0.013732	   -0.206456	   -0.343754	   -0.550210	    0.056752	    0.030582	    0.087333	    0.150744	    0.085774	    0.236518	    0.017088	   -0.017099	   -0.000012	    0.020515	    0.016727	    0.037243	    0.065978	    0.053580	    0.119558	    0.012598	   -0.031852	   -0.019254	   -0.163321	   -0.181834	   -0.345155	   -0.144447	   -0.146652	   -0.291098	    0.157258	    0.132136	    0.289394
     1.875	0	0	    0	    0.022573	    0.009055	    0.031627	    0.025042	   -0.009814	    0.015228	    0.061597	    0.032311	    0.093908	    0.028948	   -0.033482	   -0.004534	   -0.064149	   -0.159748	   -0.223897	   -0.019221	   -0.091485	   -0.110707	    0.133697	    0.183845	    0.317541	    0.032559	    0.033115	    0.065674	   -0.032987	   -0.058207	   -0.091195	    0.029828	   -0.002989	    0.026839	    0.026947	   -0.011620	    0.015327	    0.043851	   -0.012035	    0.031816	   -0.196838	   -0.340738	   -0.537576	    0.069622	    0.046267	    0.115888	    0.164458	    0.106862	    0.271320	    0.021045	    0.005312	    0.026357	    0.012117	   -0.010669	    0.001448	    0.060041	    0.040664	    0.100705	    0.019975	   -0.026019	   -0.006044	   -0.161040	   -0.182652	   -0.343692	   -0.140444	   -0.151375	   -0.291818	    0.172918	    0.176267	    0.349185
     1.950	0	0	    0	    0.015081	    0.021727	    0.036808	    0.032310	   -0.006133	    0.026177	    0.075695	    0.033764	    0.109459	    0.030894	   -0.021524	    0.009370	   -0.061356	   -0.162980	   -0.224336	   -0.006841	   -0.095962	   -0.102803	    0.167065	    0.174873	    0.341938	    0.029502	    0.040565	    0.070067	   -0.025477	   -0.051265	   -0.076742	    0.028940	   -0.011250	    0.017690	    0.032247	   -0.003634	    0.028613	    0.048071	   -0.009808	    0.038262	   -0.196920	   -0.332943	   -0.529863	    0.075195	    0.052059	    0.127254	    0.183008	    0.100162	    0.283170	    0.022661	    0.009752	    0.032414	    0.007675	   -0.023702	   -0.016027	    0.057125	    0.030791	    0.087916	    0.024134	   -0.024376	   -0.000242	   -0.161801	   -0.180429	   -0.342229	   -0.146164	   -0.141581	   -0.287745	    0.198223	    0.181147	    0.379370
     2.025	0	0	    0	   -0.011914	    0.036083	    0.024169	    0.029818	   -0.000096	    0.029723	    0.072045	    0.036896	    0.108941	    0.012066	   -0.018116	   -0.006049	   -0.071765	   -0.158401	   -0.230166	   -0.013740	   -0.086681	   -0.100421	    0.140413	    0.194992	    0.335405	    0.017078	    0.046653	    0.063731	   -0.025354	   -0.044856	   -0.070209	    0.029082	   -0.015578	    0.013504	    0.028095	   -0.001089	    0.027005	    0.051905	   -0.007113	    0.044792	   -0.196280	   -0.329309	   -0.525588	    0.069706	    0.056899	    0.126605	    0.140061	    0.115187	    0.255249	    0.017501	    0.012059	    0.029560	    0.000449	   -0.031309	   -0.030860	    0.042741	    0.026853	    0.069594	    0.020501	   -0.023790	   -0.003289	   -0.162955	   -0.184107	   -0.347062	   -0.155336	   -0.142878	   -0.298214	    0.119063	    0.196826	    0.315889
     2.100	0	0	    0	   -0.001130	   -0.001467	   -0.002597	    0.027972	   -0.012023	    0.015949	    0.054980	    0.021711	    0.076691	   -0.011999	   -0.049572	   -0.061571	   -0.051524	   -0.161870	   -0.213393	   -0.003150	   -0.094619	   -0.097769	    0.151636	    0.153602	    0.305238	    0.018909	    0.039910	    0.058819	   -0.035390	   -0.042012	   -0.077402	    0.028159	   -0.018280	    0.009879	    0.010312	   -0.011245	   -0.000932	    0.062017	    0.000219	    0.062236	   -0.181395	   -0.331623	   -0.513017	    0.065711	    0.067857	    0.133568	    0.080645	    0.153597	    0.234242	    0.012775	    0.007400	    0.020174	    0.002066	   -0.032290	   -0.030224	    0.020980	    0.017656	    0.038636	    0.007051	   -0.020815	   -0.013763	   -0.150708	   -0.189714	   -0.340422	   -0.146302	   -0.153024	   -0.299327	    0.076227	    0.103977	    0.180204
     2.175	0	0	    0	    0.001941	   -0.013100	   -0.011159	    0.020572	   -0.005894	    0.014679	    0.026551	    0.013157	    0.039708	   -0.029875	   -0.068545	   -0.098419	   -0.032985	   -0.153228	   -0.186213	   -0.008497	   -0.090546	   -0.099044	    0.115686	    0.125728	    0.241414	    0.022958	    0.025323	    0.048282	    0.002029	   -0.032807	   -0.030778	    0.031624	   -0.008844	    0.022780	   -0.001215	   -0.015525	   -0.016740	    0.055499	    0.016054	    0.071554	   -0.166287	   -0.307370	   -0.473657	    0.032155	    0.063784	    0.095939	    0.084013	    0.115171	    0.199184	    0.028799	    0.010802	    0.039600	    0.012510	   -0.019381	   -0.006871	    0.011384	    0.011164	    0.022548	   -0.007937	   -0.010509	   -0.018446	   -0.136925	   -0.160391	   -0.297316	   -0.164233	   -0.156422	   -0.320655	    0.058739	    0.063446	    0.122184
     2.250	0	0	    0	   -0.000579	   -0.004090	   -0.004670	    0.018306	   -0.009437	    0.008868	    0.011630	    0.003819	    0.015449	   -0.031978	   -0.070585	   -0.102563	   -0.022609	   -0.120640	   -0.143249	    0.005034	   -0.088858	   -0.083823	    0.096721	    0.106668	    0.203388	    0.016515	    0.023627	    0.040142	    0.014098	   -0.014268	   -0.000170	    0.062339	    0.015125	    0.077464	   -0.004325	   -0.019605	   -0.023929	    0.046918	    0.014183	    0.061100	   -0.140280	   -0.262444	   -0.402725	    0.019344	    0.022446	    0.041790	    0.100533	    0.084253	    0.184785	    0.023736	    0.009638	    0.033374	    0.030763	   -0.010551	    0.020213	    0.032090	    0.015295	    0.047385	   -0.007387	   -0.015880	   -0.023267	   -0.110969	   -0.138585	   -0.249554	   -0.165775	   -0.167831	   -0.333606	    0.030121	    0.023117	    0.053238
     2.325	0	0	    0	    0.004117	   -0.002259	    0.001857	    0.011291	   -0.009349	    0.001941	    0.001305	   -0.010590	   -0.009285	   -0.034665	   -0.070579	   -0.105244	   -0.015036	   -0.105914	   -0.120950	    0.010457	   -0.064190	   -0.053732	    0.094616	    0.070980	    0.165596	    0.014463	    0.011482	    0.025946	    0.015015	   -0.018247	   -0.003232	    0.062802	    0.036915	    0.099717	   -0.011092	   -0.019883	   -0.030975	    0.040222	    0.013864	    0.054086	   -0.141223	   -0.244927	   -0.386149	    0.012719	    0.006910	    0.019629	    0.107789	    0.068367	    0.176157	    0.014446	   -0.011684	    0.002762	    0.044792	    0.008702	    0.053494	    0.030925	    0.029310	    0.060235	   -0.007427	   -0.011119	   -0.018546	   -0.092155	   -0.114134	   -0.206289	   -0.163010	   -0.171250	   -0.334260	    0.023273	    0.018840	    0.042114
     2.400	0	0	    0	    0.007262	    0.001733	    0.008995	    0.002798	   -0.002733	    0.000065	   -0.014879	   -0.002260	   -0.017139	   -0.036394	   -0.070732	   -0.107126	   -0.018933	   -0.094738	   -0.113671	   -0.004974	   -0.031848	   -0.036823	    0.042160	    0.115302	    0.157462	    0.008783	    0.008369	    0.017152	    0.015323	   -0.019832	   -0.004509	    0.053655	    0.039871	    0.093527	   -0.016045	   -0.022172	   -0.038216	    0.033957	    0.012209	    0.046166	   -0.146862	   -0.222507	   -0.369370	   -0.000660	    0.001848	    0.001188	    0.099900	    0.072323	    0.172222	    0.012005	   -0.022093	   -0.010087	    0.045243	    0.012261	    0.057503	    0.025634	    0.027761	    0.053395	   -0.009310	   -0.009281	   -0.018591	   -0.094812	   -0.104664	   -0.199477	   -0.170925	   -0.170827	   -0.341751	    0.018103	    0.020874	    0.038976
     2.475	0	0	    0	    0.001084	    0.008538	    0.009622	   -0.003474	   -0.006938	   -0.010413	    0.000219	   -0.009275	   -0.009057	   -0.045358	   -0.072013	   -0.117370	   -0.016850	   -0.089693	   -0.106543	   -0.004134	   -0.034425	   -0.038559	    0.099963	    0.085932	    0.185895	    0.006419	    0.007888	    0.014306	    0.006136	   -0.018756	   -0.012620	    0.049095	    0.035134	    0.084229	   -0.024726	   -0.025180	   -0.049907	    0.027116	    0.002694	    0.029810	   -0.152601	   -0.220027	   -0.372628	   -0.000153	    0.009742	    0.009589	    0.126218	    0.090233	    0.216451	    0.008162	   -0.025295	   -0.017134	    0.044626	    0.012929	    0.057555	    0.028514	    0.027605	    0.056119	   -0.012419	   -0.011365	   -0.023785	   -0.094710	   -0.106707	   -0.201417	   -0.177888	   -0.175276	   -0.353164	    0.071393	    0.021914	    0.093306
     2.550	0	0	    0	   -0.001505	    0.001896	    0.000391	   -0.008753	   -0.016001	   -0.024754	   -0.011928	   -0.006334	   -0.018262	   -0.047943	   -0.077604	   -0.125547	   -0.022448	   -0.090309	   -0.112757	   -0.009095	   -0.045492	   -0.054587	    0.097573	    0.097947	    0.195520	    0.008677	    0.001841	    0.010518	   -0.004478	   -0.029687	   -0.034165	    0.042200	    0.028954	    0.071154	   -0.028684	   -0.031454	   -0.060138	    0.026122	    0.001004	    0.027126	   -0.155115	   -0.229927	   -0.385043	    0.012975	    0.009627	    0.022602	    0.162500	    0.074515	    0.237015	    0.005752	   -0.029619	   -0.023868	    0.044554	    0.012078	    0.056632	    0.024839	    0.028430	    0.053269	   -0.013601	   -0.014142	   -0.027743	   -0.096119	   -0.111291	   -0.207411	   -0.184175	   -0.183372	   -0.367548	    0.088005	    0.058490	    0.146495
     2.625	0	0	    0	    0.007923	   -0.008055	   -0.000133	   -0.005104	   -0.020943	   -0.026048	   -0.006354	   -0.019674	   -0.026027	   -0.053278	   -0.079441	   -0.132719	   -0.022044	   -0.092614	   -0.114658	   -0.002528	   -0.055178	   -0.057706	    0.130532	    0.076512	    0.207043	    0.008466	   -0.000773	    0.007692	   -0.005171	   -0.029851	   -0.035022	    0.039827	    0.025287	    0.065114	   -0.032388	   -0.032357	   -0.064745	    0.024889	    0.002254	    0.027143	   -0.159138	   -0.227462	   -0.386600	    0.012015	    0.006586	    0.018601	    0.157167	    0.084356	    0.241523	   -0.000037	   -0.027751	   -0.027788	    0.042146	    0.010167	    0.052313	    0.016953	    0.025346	    0.042299	   -0.016103	   -0.013676	   -0.029778	   -0.095834	   -0.110035	   -0.205869	   -0.189310	   -0.179839	   -0.369150	    0.107293	    0.098961	    0.206254
     2.700	0	0	    0	    0.004953	   -0.004279	    0.000674	   -0.006239	   -0.020427	   -0.026665	   -0.020863	   -0.011938	   -0.032800	   -0.056862	   -0.079437	   -0.136299	   -0.023136	   -0.091279	   -0.114414	   -0.015536	   -0.048785	   -0.064322	    0.082808	    0.119829	    0.202636	    0.007583	    0.002373	    0.009956	   -0.003913	   -0.028034	   -0.031947	    0.035656	    0.028523	    0.064180	   -0.037809	   -0.031586	   -0.069396	    0.020286	    0.004819	    0.025105	   -0.167781	   -0.222974	   -0.390754	    0.001798	    0.010740	    0.012538	    0.155497	    0.092896	    0.248393	   -0.002269	   -0.028514	   -0.030782	    0.040179	    0.010287	    0.050466	    0.012650	    0.020981	    0.033631	   -0.019854	   -0.012055	   -0.031909	   -0.098103	   -0.106916	   -0.205019	   -0.192750	   -0.175922	   -0.368672	    0.130985	    0.113018	    0.244003
     2.775	0	0	    0	   -0.037437	    0.021487	   -0.015950	   -0.012823	   -0.015645	   -0.028468	   -0.014862	   -0.013895	   -0.028756	   -0.058071	   -0.083988	   -0.142059	   -0.074787	   -0.107967	   -0.182754	   -0.035838	   -0.046707	   -0.082545	    0.106983	    0.107986	    0.214970	   -0.009423	    0.007740	   -0.001684	   -0.009128	   -0.025517	   -0.034645	    0.027939	    0.026664	    0.054603	   -0.046249	   -0.033413	   -0.079662	   -0.006532	   -0.021664	   -0.028196	   -0.180511	   -0.223531	   -0.404042	   -0.007232	    0.010254	    0.003022	    0.168702	    0.087942	    0.256644	   -0.001667	   -0.027918	   -0.029585	    0.038104	    0.009887	    0.047991	    0.019175	    0.020425	    0.039600	   -0.040095	   -0.010608	   -0.050704	   -0.108219	   -0.104163	   -0.212382	   -0.192451	   -0.173983	   -0.366434	    0.143208	    0.142003	    0.285211
     2.850	0	0	    0	   -0.015766	   -0.010619	   -0.026385	   -0.014364	   -0.021108	   -0.035472	    0.009763	   -0.005081	    0.004682	   -0.038900	   -0.084249	   -0.123150	   -0.074041	   -0.163620	   -0.237662	   -0.012540	   -0.107394	   -0.119934	    0.135375	    0.153764	    0.289139	   -0.007959	   -0.000226	   -0.008185	   -0.051488	   -0.039412	   -0.090900	    0.013502	    0.013393	    0.026895	   -0.032344	   -0.041411	   -0.073756	    0.005413	   -0.041953	   -0.036539	   -0.212379	   -0.328817	   -0.541196	    0.027754	    0.012850	    0.040604	    0.171345	    0.089436	    0.260780	   -0.018365	   -0.026181	   -0.044546	    0.028971	    0.014853	    0.043824	    0.030464	    0.034518	    0.064982	   -0.034593	   -0.046216	   -0.080809	   -0.164191	   -0.163480	   -0.327671	   -0.177142	   -0.183022	   -0.360164	    0.168915	    0.162875	    0.331790
     2.925	0	0	    0	   -0.005230	   -0.017387	   -0.022617	    0.003677	   -0.016381	   -0.012704	    0.032658	    0.008545	    0.041203	   -0.019046	   -0.071790	   -0.090836	   -0.078074	   -0.183481	   -0.261556	   -0.010191	   -0.093746	   -0.103937	    0.172812	    0.167714	    0.340526	    0.010109	    0.003808	    0.013917	   -0.066212	   -0.065990	   -0.132202	    0.014318	   -0.000353	    0.013965	   -0.013415	   -0.036362	   -0.049777	    0.019468	   -0.038876	   -0.019408	   -0.207893	   -0.337495	   -0.545388	    0.051611	    0.034772	    0.086383	    0.191365	    0.094211	    0.285575	   -0.011076	   -0.027590	   -0.038666	    0.010984	    0.005390	    0.016374	    0.038969	    0.034198	    0.073167	   -0.014809	   -0.046667	   -0.061476	   -0.170870	   -0.193030	   -0.363900	   -0.161539	   -0.152400	   -0.313939	    0.192096	    0.186815	    0.378911
     3.000	0	0	    0	   -0.017890	    0.003346	   -0.014544	    0.011843	   -0.010038	    0.001806	    0.046033	    0.016037	    0.062070	   -0.013778	   -0.057393	   -0.071171	   -0.083576	   -0.183726	   -0.267303	   -0.011588	   -0.092588	   -0.104176	    0.157321	    0.194013	    0.351334	    0.007589	    0.022847	    0.030436	   -0.050105	   -0.064078	   -0.114183	    0.020751	   -0.010283	    0.010468	   -0.004460	   -0.026934	   -0.031394	    0.028750	   -0.029057	   -0.000306	   -0.194663	   -0.342225	   -0.536888	    0.059273	    0.045550	    0.104823	    0.208690	    0.090966	    0.299656	    0.007513	   -0.006800	    0.000713	    0.011771	   -0.009989	    0.001783	    0.042088	    0.031213	    0.073301	   -0.003607	   -0.040234	   -0.043841	   -0.163750	   -0.194736	   -0.358486	   -0.151842	   -0.154376	   -0.306218	    0.213915	    0.182695	    0.396610
     3.075	0	0	    0	   -0.013728	    0.008602	   -0.005127	    0.018158	   -0.008031	    0.010127	    0.048632	    0.025965	    0.074597	   -0.003511	   -0.051265	   -0.054776	   -0.075502	   -0.184975	   -0.260477	   -0.004331	   -0.100334	   -0.104666	    0.182909	    0.182502	    0.365411	    0.012024	    0.027791	    0.039815	   -0.046953	   -0.054256	   -0.101209	    0.022646	   -0.011115	    0.011530	    0.000184	   -0.020794	   -0.020610	    0.035433	   -0.024055	    0.011378	   -0.189734	   -0.341642	   -0.531376	    0.064264	    0.056177	    0.120440	    0.199480	    0.107265	    0.306745	    0.014596	    0.006754	    0.021350	    0.008530	   -0.013658	   -0.005128	    0.043498	    0.029778	    0.073276	    0.001548	   -0.034867	   -0.033319	   -0.158046	   -0.193908	   -0.351955	   -0.145704	   -0.144969	   -0.290673	    0.214192	    0.197039	    0.411231
     3.150	0	0	    0	   -0.001949	   -0.011108	   -0.013057	    0.019854	   -0.007644	    0.012210	    0.055000	    0.022649	    0.077649	   -0.003188	   -0.048938	   -0.052126	   -0.066524	   -0.185490	   -0.252014	   -0.011573	   -0.099615	   -0.111188	    0.145803	    0.209285	    0.355088	    0.006752	    0.018865	    0.025617	   -0.043157	   -0.051022	   -0.094179	    0.024560	   -0.012870	    0.011689	   -0.002690	   -0.018191	   -0.020881	    0.035298	   -0.023371	    0.011927	   -0.185435	   -0.340534	   -0.525969	    0.058986	    0.043405	    0.102391	    0.156925	    0.109487	    0.266412	    0.013764	    0.011608	    0.025372	    0.008965	   -0.018196	   -0.009231	    0.035204	    0.029485	    0.064689	   -0.001688	   -0.032826	   -0.034514	   -0.157139	   -0.192752	   -0.349891	   -0.154486	   -0.146545	   -0.301030	    0.133763	    0.183697	    0.317460
     3.225	0	0	    0	   -0.006603	    0.001515	   -0.005089	    0.011089	   -0.011859	   -0.000770	    0.045190	    0.022037	    0.067227	   -0.014553	   -0.053314	   -0.067867	   -0.046167	   -0.158167	   -0.204333	   -0.010270	   -0.083056	   -0.093327	    0.161582	    0.196181	    0.357763	    0.008897	    0.018219	    0.027116	   -0.048409	   -0.054050	   -0.102460	    0.022760	   -0.011826	    0.010934	   -0.009886	   -0.023675	   -0.033561	    0.040518	   -0.025337	    0.015181	   -0.165915	   -0.340633	   -0.506548	    0.079640	    0.053121	    0.132761	    0.134347	    0.134299	    0.268646	    0.009246	    0.004920	    0.014165	    0.012025	   -0.019339	   -0.007314	    0.032290	    0.021601	    0.053891	   -0.002409	   -0.034357	   -0.036766	   -0.143960	   -0.195059	   -0.339019	   -0.131458	   -0.156748	   -0.288205	    0.098311	    0.108331	    0.206642
     3.300	0	0	    0	   -0.003368	    0.003273	   -0.000095	    0.005427	   -0.016050	   -0.010623	    0.038327	    0.010099	    0.048426	   -0.033515	   -0.063682	   -0.097197	   -0.022633	   -0.137449	   -0.160082	    0.000982	   -0.077657	   -0.076676	    0.165448	    0.152845	    0.318293	    0.013081	    0.007907	    0.020988	   -0.044619	   -0.054160	   -0.098779	    0.021307	   -0.014410	    0.006896	   -0.015772	   -0.026492	   -0.042264	    0.045366	   -0.014602	    0.030764	   -0.156078	   -0.312926	   -0.469005	    0.051345	    0.061795	    0.113141	    0.104895	    0.118853	    0.223749	    0.009510	   -0.002260	    0.007251	    0.019457	   -0.018331	    0.001126	    0.016482	    0.017334	    0.033816	   -0.006656	   -0.030941	   -0.037596	   -0.134480	   -0.187260	   -0.321741	   -0.139972	   -0.154610	   -0.294582	    0.059489	    0.075986	    0.135475
     3.375	0	0	    0	    0.000815	   -0.016529	   -0.015714	    0.005420	   -0.020683	   -0.015263	    0.013230	    0.007123	    0.020352	   -0.040571	   -0.072941	   -0.113512	   -0.013823	   -0.104303	   -0.118126	   -0.001380	   -0.056584	   -0.057964	    0.126455	    0.113351	    0.239806	    0.007230	    0.005396	    0.012626	   -0.029122	   -0.052546	   -0.081668	    0.024981	   -0.010110	    0.014871	   -0.014024	   -0.026387	   -0.040412	    0.045478	    0.001681	    0.047159	   -0.130007	   -0.274479	   -0.404486	    0.045388	    0.023401	    0.068789	    0.134160	    0.048740	    0.182900	    0.018801	   -0.002605	    0.016197	    0.026974	   -0.009921	    0.017053	    0.008106	    0.006854	    0.014961	   -0.013461	   -0.021065	   -0.034527	   -0.113133	   -0.156133	   -0.269267	   -0.159545	   -0.160953	   -0.320497	    0.036779	    0.040060	    0.076839
     3.450	0	0	    0	    0.004273	   -0.017070	   -0.012797	    0.005458	   -0.013724	   -0.008266	    0.009037	   -0.006559	    0.002478	   -0.040526	   -0.075137	   -0.115663	   -0.001955	   -0.081825	   -0.083780	    0.013106	   -0.037881	   -0.024775	    0.093125	    0.102185	    0.195310	    0.013610	    0.001102	    0.014712	   -0.004110	   -0.035466	   -0.039575	    0.039765	    0.004602	    0.044367	   -0.016499	   -0.023969	   -0.040468	    0.039309	    0.009362	    0.048671	   -0.114437	   -0.219270	   -0.333707	    0.034921	    0.014838	    0.049759	    0.154617	    0.035535	    0.190152	    0.029690	   -0.000414	    0.029275	    0.036129	    0.001888	    0.038017	    0.019724	    0.007688	    0.027413	   -0.011184	   -0.011855	   -0.023039	   -0.098324	   -0.129377	   -0.227701	   -0.161421	   -0.164726	   -0.326147	    0.037491	    0.014892	    0.052383
     3.525	0	0	    0	    0.012438	   -0.009811	    0.002626	    0.006254	   -0.010830	   -0.004576	   -0.007720	   -0.009686	   -0.017406	   -0.042926	   -0.072238	   -0.115163	   -0.005103	   -0.066723	   -0.071827	    0.021748	   -0.019926	    0.001822	    0.093929	    0.090883	    0.184812	    0.009470	    0.005164	    0.014634	    0.005232	   -0.022001	   -0.016769	    0.042995	    0.017849	    0.060844	   -0.020148	   -0.023341	   -0.043489	    0.035049	    0.009124	    0.044174	   -0.117781	   -0.202590	   -0.320371	    0.030221	    0.009924	    0.040145	    0.132189	    0.059093	    0.191282	    0.026893	   -0.003921	    0.022972	    0.039403	    0.007954	    0.047357	    0.022854	    0.016424	    0.039278	   -0.011902	   -0.010255	   -0.022156	   -0.085643	   -0.109330	   -0.194973	   -0.156354	   -0.169830	   -0.326185	    0.026677	    0.018053	    0.044730
     3.600	0	0	    0	    0.003438	   -0.003318	    0.000120	    0.003481	   -0.010506	   -0.007025	   -0.015781	   -0.006068	   -0.021849	   -0.048444	   -0.069963	   -0.118408	   -0.009172	   -0.064481	   -0.073653	    0.010916	   -0.005650	    0.005267	    0.080299	    0.085569	    0.165869	    0.011879	    0.002986	    0.014865	    0.004716	   -0.018613	   -0.013897	    0.037988	    0.021943	    0.059931	   -0.027313	   -0.023595	   -0.050909	    0.031353	    0.008800	    0.040152	   -0.121902	   -0.190516	   -0.312418	    0.018060	    0.009382	    0.027442	    0.106599	    0.072994	    0.179593	    0.019468	   -0.007134	    0.012334	    0.037680	    0.009738	    0.047418	    0.016991	    0.018510	    0.035501	   -0.013389	   -0.008053	   -0.021442	   -0.085565	   -0.103173	   -0.188738	   -0.161043	   -0.164150	   -0.325194	    0.034595	    0.033002	    0.067596
     3.675	0	0	    0	   -0.006609	    0.011305	    0.004696	    0.001974	   -0.009442	   -0.007468	   -0.012515	   -0.019392	   -0.031908	   -0.051077	   -0.072808	   -0.123885	   -0.008009	   -0.062568	   -0.070577	    0.003569	   -0.006027	   -0.002457	    0.106801	    0.094247	    0.201048	    0.008288	    0.006951	    0.015239	    0.000035	   -0.016931	   -0.016896	    0.033393	    0.020558	    0.053952	   -0.031255	   -0.028867	   -0.060121	    0.030358	    0.007773	    0.038131	   -0.125670	   -0.182700	   -0.308370	    0.016992	    0.023066	    0.040058	    0.139886	    0.112137	    0.252022	    0.016696	   -0.012640	    0.004056	    0.035111	    0.007318	    0.042429	    0.011234	    0.014794	    0.026028	   -0.013964	   -0.008649	   -0.022612	   -0.090880	   -0.103687	   -0.194567	   -0.173799	   -0.167825	   -0.341624	    0.085937	    0.054184	    0.140121
     3.750	0	0	    0	   -0.005718	    0.013164	    0.007446	    0.000698	   -0.009587	   -0.008889	   -0.012624	   -0.020367	   -0.032992	   -0.052772	   -0.072755	   -0.125528	   -0.016489	   -0.062046	   -0.078535	    0.003305	   -0.018882	   -0.015577	    0.096779	    0.116793	    0.213572	    0.001643	    0.014498	    0.016141	    0.001275	   -0.018925	   -0.017650	    0.030872	    0.019227	    0.050099	   -0.033630	   -0.030110	   -0.063740	    0.026674	    0.008647	    0.035322	   -0.133414	   -0.176045	   -0.309459	    0.014274	    0.032689	    0.046963	    0.171329	    0.100220	    0.271548	    0.012795	   -0.013064	   -0.000269	    0.033391	    0.005977	    0.039368	    0.007278	    0.012785	    0.020063	   -0.016086	   -0.008051	   -0.024137	   -0.093533	   -0.106071	   -0.199604	   -0.176574	   -0.172174	   -0.348748	    0.078168	    0.078200	    0.156368
     3.825	0	0	    0	    0.001031	   -0.004248	   -0.003217	   -0.003259	   -0.009900	   -0.013159	   -0.014142	   -0.021403	   -0.035545	   -0.053513	   -0.075008	   -0.128521	   -0.015757	   -0.066351	   -0.082108	    0.005780	   -0.024268	   -0.018488	    0.112412	    0.089788	    0.202200	    0.012037	    0.004250	    0.016287	    0.001202	   -0.021260	   -0.020058	    0.029032	    0.016463	    0.045496	   -0.035956	   -0.030422	   -0.066378	    0.024559	    0.008211	    0.032770	   -0.128838	   -0.185236	   -0.314074	    0.023709	    0.023780	    0.047489	    0.174092	    0.098747	    0.272839	    0.012858	   -0.017540	   -0.004682	    0.033740	    0.004263	    0.038003	    0.004081	    0.011004	    0.015085	   -0.017588	   -0.007860	   -0.025448	   -0.095511	   -0.106292	   -0.201803	   -0.183292	   -0.169686	   -0.352979	    0.098817	    0.078467	    0.177284
     3.900	0	0	    0	   -0.017088	    0.005162	   -0.011925	   -0.006851	   -0.009244	   -0.016095	   -0.017737	   -0.015832	   -0.033569	   -0.057994	   -0.076215	   -0.134210	   -0.034492	   -0.075093	   -0.109585	   -0.020932	   -0.013473	   -0.034405	    0.074955	    0.127862	    0.202817	   -0.019510	    0.009171	   -0.010338	    0.001307	   -0.023210	   -0.021903	    0.024346	    0.016643	    0.040988	   -0.040701	   -0.030241	   -0.070942	    0.001771	    0.007435	    0.009205	   -0.140362	   -0.181970	   -0.322331	    0.013774	    0.025217	    0.038991	    0.154662	    0.098293	    0.252956	    0.009537	   -0.017897	   -0.008360	    0.033312	    0.002908	    0.036219	    0.004375	    0.009431	    0.013807	   -0.023082	   -0.006679	   -0.029761	   -0.100975	   -0.104065	   -0.205040	   -0.185171	   -0.171944	   -0.357115	    0.117234	    0.107983	    0.225217
     3.975	0	0	    0	   -0.024071	    0.014949	   -0.009121	   -0.011256	   -0.022229	   -0.033485	    0.009786	   -0.011419	   -0.001632	   -0.041350	   -0.079335	   -0.120685	   -0.061226	   -0.109817	   -0.171043	   -0.025139	   -0.067252	   -0.092391	    0.129155	    0.139909	    0.269064	   -0.021864	   -0.007194	   -0.029058	   -0.048921	   -0.027325	   -0.076246	    0.003441	    0.003170	    0.006611	   -0.038422	   -0.040862	   -0.079284	   -0.004351	   -0.030381	   -0.034732	   -0.209023	   -0.215107	   -0.424130	    0.018853	    0.018890	    0.037743	    0.158583	    0.113122	    0.271705	   -0.014804	   -0.016583	   -0.031386	    0.021903	    0.007954	    0.029857	    0.017097	    0.020508	    0.037605	   -0.029543	   -0.024996	   -0.054539	   -0.156738	   -0.116282	   -0.273021	   -0.184597	   -0.175000	   -0.359597	    0.128276	    0.127898	    0.256174
     4.050	0	0	    0	   -0.028473	    0.025362	   -0.003111	   -0.005834	   -0.020021	   -0.025854	    0.028110	   -0.003096	    0.025013	   -0.035326	   -0.065659	   -0.100985	   -0.059841	   -0.134110	   -0.193951	   -0.016716	   -0.069128	   -0.085844	    0.173111	    0.159705	    0.332816	   -0.016506	    0.004554	   -0.011952	   -0.067764	   -0.061862	   -0.129626	   -0.003880	   -0.017766	   -0.021647	   -0.026762	   -0.038300	   -0.065062	    0.002193	   -0.037489	   -0.035296	   -0.195720	   -0.289747	   -0.485467	    0.039351	    0.039775	    0.079126	    0.201425	    0.086936	    0.288360	   -0.023107	   -0.021007	   -0.044114	    0.001192	   -0.009077	   -0.007884	    0.016103	    0.018931	    0.035034	   -0.024838	   -0.037167	   -0.062005	   -0.187851	   -0.171804	   -0.359655	   -0.182625	   -0.153736	   -0.336362	    0.164281	    0.153012	    0.317293
     4.125	0	0	    0	   -0.003783	   -0.001080	   -0.004864	   -0.005244	   -0.019436	   -0.024680	    0.020071	    0.011464	    0.031535	   -0.034579	   -0.066451	   -0.101030	   -0.054700	   -0.141760	   -0.196460	   -0.021024	   -0.067809	   -0.088833	    0.157733	    0.195402	    0.353136	   -0.007760	    0.003697	   -0.004063	   -0.065388	   -0.062682	   -0.128069	   -0.005700	   -0.025642	   -0.031342	   -0.027159	   -0.034040	   -0.061199	    0.005402	   -0.035753	   -0.030351	   -0.190201	   -0.295736	   -0.485937	    0.039118	    0.051161	    0.090279	    0.198464	    0.106913	    0.305376	   -0.025729	   -0.012485	   -0.038214	   -0.003444	   -0.024448	   -0.027891	    0.011066	    0.014372	    0.025439	   -0.026180	   -0.036677	   -0.062858	   -0.187520	   -0.190688	   -0.378208	   -0.189723	   -0.152943	   -0.342666	    0.175128	    0.183670	    0.358797
     4.200	0	0	    0	   -0.003482	    0.002455	   -0.001027	   -0.002458	   -0.018909	   -0.021367	    0.022240	    0.009593	    0.031834	   -0.029752	   -0.066655	   -0.096408	   -0.046650	   -0.146964	   -0.193614	   -0.017338	   -0.071712	   -0.089050	    0.171689	    0.178230	    0.349919	   -0.000909	    0.006548	    0.005639	   -0.058384	   -0.064302	   -0.122686	   -0.002243	   -0.029986	   -0.032229	   -0.024460	   -0.035690	   -0.060150	    0.010573	   -0.036029	   -0.025456	   -0.187645	   -0.296172	   -0.483817	    0.052281	    0.050196	    0.102477	    0.202087	    0.105626	    0.307713	   -0.017079	   -0.017937	   -0.035016	   -0.001123	   -0.032146	   -0.033269	    0.017398	    0.010504	    0.027902	   -0.021462	   -0.036172	   -0.057634	   -0.184677	   -0.192981	   -0.377658	   -0.176753	   -0.157868	   -0.334620	    0.190720	    0.190494	    0.381214
     4.275	0	0	    0	   -0.004352	    0.004520	    0.000168	    0.007060	   -0.019617	   -0.012557	    0.032202	    0.006106	    0.038308	   -0.028536	   -0.065052	   -0.093588	   -0.048337	   -0.140167	   -0.188504	   -0.000455	   -0.079270	   -0.079725	    0.199937	    0.152331	    0.352267	   -0.001902	    0.013503	    0.011601	   -0.045796	   -0.060206	   -0.106001	    0.004495	   -0.030344	   -0.025849	   -0.022371	   -0.033508	   -0.055879	    0.015152	   -0.034619	   -0.019467	   -0.176027	   -0.294639	   -0.470666	    0.067275	    0.046529	    0.113804	    0.201192	    0.113947	    0.315140	   -0.006512	   -0.011783	   -0.018296	    0.009657	   -0.032689	   -0.023032	    0.021843	    0.011873	    0.033715	   -0.015286	   -0.034788	   -0.050074	   -0.169586	   -0.189310	   -0.358896	   -0.159589	   -0.154602	   -0.314191	    0.195192	    0.211268	    0.406460
     4.350	0	0	    0	   -0.007077	    0.006015	   -0.001062	    0.005920	   -0.011750	   -0.005830	    0.028546	    0.012358	    0.040903	   -0.030557	   -0.063247	   -0.093804	   -0.054227	   -0.138111	   -0.192338	   -0.011883	   -0.067098	   -0.078981	    0.146697	    0.213659	    0.360356	   -0.003017	    0.011484	    0.008467	   -0.041308	   -0.054630	   -0.095938	    0.005690	   -0.029426	   -0.023736	   -0.018988	   -0.032324	   -0.051312	    0.016680	   -0.032543	   -0.015863	   -0.169913	   -0.294957	   -0.464870	    0.064792	    0.064329	    0.129121	    0.203630	    0.107643	    0.311273	   -0.005748	   -0.007265	   -0.013013	    0.009801	   -0.031956	   -0.022155	    0.020828	    0.010441	    0.031269	   -0.014101	   -0.033012	   -0.047113	   -0.163842	   -0.189301	   -0.353144	   -0.156154	   -0.150559	   -0.306713	    0.208640	    0.212091	    0.420731
     4.425	0	0	    0	   -0.015529	    0.006056	   -0.009473	    0.007069	   -0.012015	   -0.004946	    0.035061	    0.005551	    0.040612	   -0.030278	   -0.063141	   -0.093420	   -0.062056	   -0.137356	   -0.199412	   -0.011727	   -0.074663	   -0.086391	    0.162126	    0.176853	    0.338979	   -0.007165	    0.009360	    0.002195	   -0.037787	   -0.049367	   -0.087154	    0.005273	   -0.027240	   -0.021967	   -0.018974	   -0.029946	   -0.048920	    0.015353	   -0.031031	   -0.015678	   -0.174412	   -0.292185	   -0.466597	    0.057897	    0.058607	    0.116504	    0.180813	    0.120946	    0.301759	   -0.006432	   -0.005396	   -0.011828	    0.008768	   -0.030155	   -0.021387	    0.017239	    0.010152	    0.027391	   -0.018010	   -0.031723	   -0.049733	   -0.163914	   -0.187334	   -0.351248	   -0.162020	   -0.150461	   -0.312480	    0.184629	    0.217599	    0.402228
     4.500	0	0	    0	   -0.018788	   -0.001171	   -0.019959	    0.009649	   -0.013055	   -0.003406	    0.029514	    0.007313	    0.036827	   -0.028288	   -0.060892	   -0.089179	   -0.052369	   -0.145466	   -0.197835	   -0.010684	   -0.076618	   -0.087302	    0.180833	    0.164722	    0.345555	   -0.011277	    0.014030	    0.002753	   -0.034394	   -0.048031	   -0.082425	    0.002933	   -0.028180	   -0.025248	   -0.015744	   -0.029455	   -0.045199	    0.023717	   -0.028415	   -0.004698	   -0.174735	   -0.292678	   -0.467413	    0.059612	    0.058298	    0.117910	    0.190827	    0.107771	    0.298597	   -0.005952	   -0.004878	   -0.010830	    0.005811	   -0.031525	   -0.025714	    0.011702	    0.009809	    0.021511	   -0.019800	   -0.031771	   -0.051571	   -0.165871	   -0.188449	   -0.354320	   -0.170501	   -0.154828	   -0.325330	    0.217439	    0.206254	    0.423693
     4.575	0	0	    0	   -0.045817	    0.004650	   -0.041167	    0.010082	   -0.010653	   -0.000571	    0.016096	    0.010571	    0.026667	   -0.046735	   -0.053006	   -0.099740	   -0.059083	   -0.128937	   -0.188020	   -0.013749	   -0.078809	   -0.092558	    0.149732	    0.168404	    0.318135	   -0.013466	    0.008943	   -0.004523	   -0.021920	   -0.041742	   -0.063662	    0.006969	   -0.024388	   -0.017419	   -0.016142	   -0.019834	   -0.035976	    0.036566	   -0.008085	    0.028481	   -0.169841	   -0.288244	   -0.458085	    0.050624	    0.053187	    0.103811	    0.163677	    0.111080	    0.274757	   -0.008303	   -0.003117	   -0.011419	    0.008971	   -0.028727	   -0.019756	   -0.001476	    0.008464	    0.006989	   -0.021108	   -0.026319	   -0.047427	   -0.161477	   -0.184993	   -0.346469	   -0.169903	   -0.159639	   -0.329543	    0.167170	    0.210329	    0.377499
     4.650	0	0	    0	   -0.029467	   -0.011556	   -0.041024	    0.016415	    0.000655	    0.017070	    0.002298	    0.005790	    0.008088	   -0.056221	   -0.060568	   -0.116789	   -0.041174	   -0.109108	   -0.150282	   -0.008341	   -0.071446	   -0.079787	    0.136243	    0.132882	    0.269125	   -0.009974	    0.007309	   -0.002666	    0.010459	   -0.023308	   -0.012849	    0.028124	   -0.002415	    0.025709	   -0.020650	   -0.013643	   -0.034292	    0.032714	    0.009566	    0.042279	   -0.176882	   -0.280752	   -0.457634	    0.042563	    0.018754	    0.061317	    0.178002	    0.076759	    0.254761	   -0.002221	   -0.004436	   -0.006657	    0.027443	   -0.011621	    0.015822	   -0.002929	    0.003979	    0.001050	   -0.030332	   -0.018042	   -0.048374	   -0.152836	   -0.164945	   -0.317781	   -0.177660	   -0.165504	   -0.343164	    0.104587	    0.141894	    0.246481
     4.725	0	0	    0	   -0.007715	   -0.019874	   -0.027589	    0.013453	    0.004748	    0.018202	   -0.011363	    0.002088	   -0.009275	   -0.049334	   -0.067146	   -0.116480	   -0.025655	   -0.096077	   -0.121732	   -0.007814	   -0.054910	   -0.062724	    0.093913	    0.110302	    0.204216	   -0.009689	    0.004993	   -0.004696	    0.021887	   -0.008069	    0.013818	    0.043187	    0.021896	    0.065083	   -0.019032	   -0.015198	   -0.034231	    0.023795	    0.009373	    0.033168	   -0.146845	   -0.246490	   -0.393335	    0.004908	    0.040430	    0.045338	    0.093662	    0.097597	    0.191259	    0.011287	   -0.007863	    0.003423	    0.034395	    0.008626	    0.043021	    0.007346	    0.014326	    0.021671	   -0.032174	   -0.017044	   -0.049218	   -0.145717	   -0.136487	   -0.282204	   -0.174339	   -0.168325	   -0.342664	    0.076911	    0.075943	    0.152854
     4.800	0	0	    0	   -0.020586	   -0.005451	   -0.026037	    0.007905	    0.004337	    0.012242	   -0.014176	   -0.007302	   -0.021478	   -0.048957	   -0.064775	   -0.113732	   -0.030255	   -0.064476	   -0.094731	   -0.002312	   -0.035140	   -0.037453	    0.052474	    0.105637	    0.158111	   -0.002775	   -0.002354	   -0.005129	    0.023127	   -0.000152	    0.022976	    0.046294	    0.034852	    0.081145	   -0.019899	   -0.014282	   -0.034181	    0.017523	    0.006703	    0.024225	   -0.140762	   -0.217641	   -0.358404	    0.015555	    0.006161	    0.021716	    0.101477	    0.046909	    0.148387	    0.011225	   -0.006156	    0.005069	    0.036946	    0.017105	    0.054052	    0.014989	    0.023534	    0.038523	   -0.033285	   -0.014932	   -0.048216	   -0.125628	   -0.129303	   -0.254931	   -0.168624	   -0.170479	   -0.339103	    0.030592	    0.036196	    0.066787
     4.875	0	0	    0	   -0.022415	    0.003404	   -0.019011	    0.009512	    0.001289	    0.010801	   -0.019371	   -0.008282	   -0.027653	   -0.047170	   -0.062302	   -0.109472	   -0.024359	   -0.051590	   -0.075949	    0.009878	   -0.014661	   -0.004783	    0.053061	    0.070621	    0.123683	    0.000071	   -0.010679	   -0.010608	    0.019830	   -0.000593	    0.019236	    0.054584	    0.039808	    0.094392	   -0.017707	   -0.014603	   -0.032310	    0.015375	    0.003824	    0.019199	   -0.139230	   -0.197137	   -0.336367	    0.026200	    0.005177	    0.031378	    0.100345	    0.044213	    0.144558	    0.008709	   -0.010690	   -0.001981	    0.042883	    0.025650	    0.068532	    0.022332	    0.031131	    0.053463	   -0.031046	   -0.016162	   -0.047208	   -0.120247	   -0.113941	   -0.234188	   -0.157061	   -0.163778	   -0.320839	    0.025964	    0.020474	    0.046438
     4.950	0	0	    0	   -0.010656	   -0.005804	   -0.016459	    0.004311	    0.004938	    0.009249	   -0.024611	   -0.009462	   -0.034074	   -0.046495	   -0.062157	   -0.108652	   -0.026832	   -0.048964	   -0.075796	   -0.001583	    0.007532	    0.005949	    0.043925	    0.071024	    0.114949	   -0.008179	   -0.017889	   -0.026068	    0.017745	   -0.004013	    0.013732	    0.051737	    0.049471	    0.101208	   -0.018743	   -0.013930	   -0.032674	    0.012290	    0.004100	    0.016390	   -0.141362	   -0.175557	   -0.316919	    0.023479	    0.013939	    0.037418	    0.101346	    0.055057	    0.156403	    0.006824	   -0.018930	   -0.012105	    0.050125	    0.028978	    0.079104	    0.024157	    0.036146	    0.060302	   -0.029890	   -0.015675	   -0.045565	   -0.118610	   -0.107800	   -0.226409	   -0.159161	   -0.152522	   -0.311682	    0.027211	    0.015244	    0.042455
     5.025	0	0	    0	   -0.007011	   -0.008498	   -0.015509	    0.002857	    0.000338	    0.003196	   -0.026354	   -0.012733	   -0.039087	   -0.045913	   -0.062169	   -0.108082	   -0.024443	   -0.052930	   -0.077373	    0.003904	   -0.007206	   -0.003302	    0.038056	    0.066006	    0.104061	   -0.014354	   -0.025097	   -0.039452	    0.016905	   -0.006207	    0.010698	    0.050559	    0.049502	    0.100060	   -0.019662	   -0.014815	   -0.034477	    0.010820	    0.002684	    0.013504	   -0.144369	   -0.168243	   -0.312612	    0.021251	    0.009330	    0.030581	    0.114600	    0.050603	    0.165203	   -0.002234	   -0.026221	   -0.028456	    0.048431	    0.033687	    0.082117	    0.023331	    0.037778	    0.061109	   -0.028988	   -0.015125	   -0.044113	   -0.121063	   -0.103806	   -0.224870	   -0.167938	   -0.148546	   -0.316484	    0.036961	    0.020479	    0.057441
     5.100	0	0	    0	   -0.022581	    0.006440	   -0.016142	    0.002542	   -0.003236	   -0.000694	   -0.028196	   -0.014037	   -0.042233	   -0.050073	   -0.061216	   -0.111289	   -0.029592	   -0.049312	   -0.078904	   -0.001398	   -0.009908	   -0.011306	    0.046656	    0.072210	    0.118866	   -0.009063	   -0.029448	   -0.038510	    0.015062	   -0.006675	    0.008387	    0.048020	    0.048318	    0.096338	   -0.020318	   -0.016443	   -0.036761	    0.008583	    0.002266	    0.010850	   -0.143455	   -0.168069	   -0.311524	    0.019120	    0.008167	    0.027287	    0.145409	    0.025880	    0.171288	   -0.006501	   -0.033116	   -0.039616	    0.046963	    0.032302	    0.079265	    0.021774	    0.037676	    0.059450	   -0.029119	   -0.014588	   -0.043706	   -0.121532	   -0.105925	   -0.227457	   -0.169718	   -0.155092	   -0.324810	    0.065596	    0.020819	    0.086414
     5.175	0	0	    0	   -0.019926	    0.003065	   -0.016861	   -0.000375	   -0.003740	   -0.004115	   -0.029975	   -0.013952	   -0.043927	   -0.053255	   -0.061052	   -0.114307	   -0.034865	   -0.043635	   -0.078500	    0.002500	   -0.021665	   -0.019165	    0.069773	    0.075203	    0.144976	   -0.013753	   -0.026895	   -0.040649	    0.012372	   -0.008728	    0.003644	    0.042049	    0.047855	    0.089904	   -0.025545	   -0.017188	   -0.042733	    0.002209	    0.003238	    0.005447	   -0.147451	   -0.165908	   -0.313358	    0.014858	    0.011236	    0.026094	    0.128113	    0.070369	    0.198482	   -0.010017	   -0.038131	   -0.048148	    0.044122	    0.030723	    0.074845	    0.016030	    0.036941	    0.052971	   -0.031485	   -0.013642	   -0.045127	   -0.124414	   -0.105729	   -0.230143	   -0.179374	   -0.159737	   -0.339111	    0.079248	    0.044244	    0.123492
     5.250	0	0	    0	   -0.008931	   -0.010838	   -0.019768	   -0.018336	   -0.002040	   -0.020376	   -0.016553	   -0.014005	   -0.030557	   -0.051634	   -0.075714	   -0.127349	   -0.051066	   -0.074510	   -0.125576	   -0.019359	   -0.024183	   -0.043541	    0.111273	    0.063316	    0.174589	   -0.032839	   -0.031552	   -0.064391	   -0.008583	   -0.002882	   -0.011465	    0.027167	    0.044597	    0.071764	   -0.043001	   -0.022786	   -0.065787	   -0.029541	   -0.020313	   -0.049854	   -0.181111	   -0.160514	   -0.341625	   -0.001478	    0.024143	    0.022665	    0.122618	    0.102024	    0.224642	   -0.020881	   -0.036283	   -0.057164	    0.044380	    0.027589	    0.071969	    0.024308	    0.034375	    0.058683	   -0.040423	   -0.014055	   -0.054477	   -0.140201	   -0.102549	   -0.242750	   -0.198022	   -0.158849	   -0.356871	    0.058871	    0.058363	    0.117233
     5.325	0	0	    0	    0.008243	    0.003548	    0.011791	   -0.018324	   -0.020275	   -0.038599	    0.011164	   -0.011971	   -0.000807	   -0.040685	   -0.070504	   -0.111189	   -0.047064	   -0.109950	   -0.157014	   -0.029702	   -0.040843	   -0.070545	    0.139854	    0.129910	    0.269763	   -0.024419	   -0.031249	   -0.055668	   -0.063216	   -0.037670	   -0.100887	    0.000128	    0.012457	    0.012585	   -0.028382	   -0.044050	   -0.072433	   -0.020637	   -0.051086	   -0.071723	   -0.208795	   -0.245393	   -0.454188	    0.018668	    0.035601	    0.054270	    0.131436	    0.114641	    0.246078	   -0.038718	   -0.045489	   -0.084206	    0.008820	    0.021248	    0.030067	    0.026229	    0.036906	    0.063135	   -0.042381	   -0.039692	   -0.082073	   -0.194912	   -0.141361	   -0.336273	   -0.188745	   -0.180133	   -0.368878	    0.089705	    0.047605	    0.137311
     5.400	0	0	    0	   -0.004885	    0.019107	    0.014222	   -0.015081	   -0.020077	   -0.035158	    0.005305	   -0.008982	   -0.003677	   -0.043225	   -0.063691	   -0.106916	   -0.042383	   -0.100000	   -0.142383	   -0.016070	   -0.054348	   -0.070419	    0.150930	    0.118836	    0.269766	   -0.026802	   -0.023702	   -0.050503	   -0.065518	   -0.048700	   -0.114219	    0.004593	   -0.009009	   -0.004416	   -0.032835	   -0.043277	   -0.076113	   -0.015394	   -0.050347	   -0.065741	   -0.197063	   -0.266575	   -0.463637	    0.020794	    0.050187	    0.070981	    0.080393	    0.141448	    0.221841	   -0.037547	   -0.042898	   -0.080445	    0.009898	   -0.004003	    0.005895	    0.022284	    0.024298	    0.046582	   -0.039148	   -0.049044	   -0.088191	   -0.176684	   -0.178457	   -0.355141	   -0.175394	   -0.169042	   -0.344436	    0.078899	    0.056892	    0.135791
     5.475	0	0	    0	   -0.011083	    0.015008	    0.003925	   -0.011225	   -0.017108	   -0.028333	    0.005872	   -0.007759	   -0.001887	   -0.044323	   -0.064901	   -0.109224	   -0.046579	   -0.091364	   -0.137943	   -0.014201	   -0.048391	   -0.062593	    0.137292	    0.119795	    0.257087	   -0.028301	   -0.028100	   -0.056401	   -0.053165	   -0.048368	   -0.101534	    0.010639	   -0.007498	    0.003141	   -0.032764	   -0.041978	   -0.074742	   -0.012200	   -0.046559	   -0.058758	   -0.189116	   -0.256224	   -0.445340	    0.038237	    0.047798	    0.086035	    0.143425	    0.109619	    0.253044	   -0.026905	   -0.037989	   -0.064894	    0.022635	   -0.002310	    0.020325	    0.022782	    0.021541	    0.044323	   -0.036827	   -0.044802	   -0.081629	   -0.156331	   -0.167992	   -0.324323	   -0.166813	   -0.160820	   -0.327634	    0.114471	    0.067415	    0.181886
     5.550	0	0	    0	   -0.013956	    0.006950	   -0.007006	   -0.009956	   -0.014311	   -0.024267	   -0.005729	   -0.004899	   -0.010628	   -0.044654	   -0.067505	   -0.112159	   -0.048519	   -0.096507	   -0.145026	   -0.025147	   -0.053898	   -0.079045	    0.123832	    0.109358	    0.233191	   -0.024603	   -0.037518	   -0.062121	   -0.046105	   -0.043231	   -0.089336	    0.010644	   -0.006079	    0.004565	   -0.034319	   -0.042990	   -0.077310	   -0.012073	   -0.043042	   -0.055115	   -0.191168	   -0.247483	   -0.438650	    0.046829	    0.028452	    0.075281	    0.170146	    0.061040	    0.231186	   -0.025755	   -0.034855	   -0.060610	    0.024554	   -0.002062	    0.022492	    0.017750	    0.017203	    0.034953	   -0.038931	   -0.043661	   -0.082592	   -0.154107	   -0.162234	   -0.316341	   -0.177063	   -0.157258	   -0.334321	    0.166915	    0.088398	    0.255313
     5.625	0	0	    0	    0.004784	   -0.009973	   -0.005189	   -0.011069	   -0.011632	   -0.022701	   -0.001000	   -0.008488	   -0.009488	   -0.030456	   -0.069450	   -0.099906	   -0.056511	   -0.116559	   -0.173070	   -0.030915	   -0.058765	   -0.089680	    0.107208	    0.123546	    0.230755	   -0.021253	   -0.033005	   -0.054259	   -0.050337	   -0.034066	   -0.084402	    0.006527	   -0.006639	   -0.000111	   -0.036656	   -0.041855	   -0.078511	   -0.016649	   -0.052213	   -0.068861	   -0.197426	   -0.254022	   -0.451448	    0.039695	    0.034264	    0.073959	    0.169177	    0.077683	    0.246860	   -0.025434	   -0.032198	   -0.057632	    0.026448	   -0.000987	    0.025460	    0.022482	    0.016237	    0.038719	   -0.035024	   -0.044010	   -0.079034	   -0.149999	   -0.161345	   -0.311345	   -0.176604	   -0.160504	   -0.337107	    0.223420	    0.131611	    0.355031
     5.700	0	0	    0	   -0.003061	    0.002937	   -0.000123	   -0.003684	   -0.010510	   -0.014193	    0.022286	   -0.003294	    0.018992	   -0.010702	   -0.051068	   -0.061770	   -0.061210	   -0.133580	   -0.194789	   -0.019800	   -0.061903	   -0.081703	    0.149987	    0.148336	    0.298323	   -0.017124	   -0.022860	   -0.039984	   -0.069154	   -0.049755	   -0.118909	   -0.005248	   -0.017081	   -0.022329	   -0.016815	   -0.039941	   -0.056756	    0.001729	   -0.055766	   -0.054037	   -0.209338	   -0.277725	   -0.487064	    0.054942	    0.049244	    0.104186	    0.202744	    0.069251	    0.271995	   -0.027011	   -0.033172	   -0.060183	    0.016959	   -0.004428	    0.012531	    0.030691	    0.019713	    0.050405	   -0.021540	   -0.055992	   -0.077532	   -0.175636	   -0.178484	   -0.354120	   -0.169498	   -0.152323	   -0.321821	    0.240630	    0.178896	    0.419526
     5.775	0	0	    0	   -0.016589	    0.020006	    0.003417	   -0.002888	   -0.004930	   -0.007817	    0.025643	    0.010441	    0.036084	   -0.021068	   -0.044135	   -0.065204	   -0.055996	   -0.129347	   -0.185343	   -0.005562	   -0.068116	   -0.073678	    0.154008	    0.178286	    0.332294	   -0.021098	   -0.018610	   -0.039708	   -0.069044	   -0.054059	   -0.123102	   -0.005099	   -0.026797	   -0.031897	   -0.017869	   -0.026497	   -0.044366	    0.009264	   -0.043854	   -0.034590	   -0.209848	   -0.291959	   -0.501808	    0.067647	    0.047374	    0.115021	    0.197442	    0.081733	    0.279174	   -0.027169	   -0.027811	   -0.054981	    0.013241	   -0.018166	   -0.004925	    0.025446	    0.018928	    0.044375	   -0.017032	   -0.048512	   -0.065544	   -0.169554	   -0.193033	   -0.362587	   -0.170650	   -0.147706	   -0.318356	    0.241616	    0.198284	    0.439900
     5.850	0	0	    0	   -0.019174	   -0.001642	   -0.020816	   -0.009432	   -0.009715	   -0.019147	    0.005915	    0.007290	    0.013205	   -0.043828	   -0.058133	   -0.101961	   -0.053848	   -0.120301	   -0.174149	   -0.021507	   -0.060534	   -0.082041	    0.139577	    0.157880	    0.297456	   -0.027209	   -0.024686	   -0.051895	   -0.060065	   -0.052255	   -0.112320	   -0.007676	   -0.024720	   -0.032396	   -0.030662	   -0.030686	   -0.061348	    0.009197	   -0.037942	   -0.028745	   -0.198046	   -0.290245	   -0.488291	    0.054253	    0.045402	    0.099655	    0.180584	    0.082960	    0.263544	   -0.032120	   -0.024563	   -0.056683	    0.013165	   -0.018034	   -0.004869	    0.010490	    0.014968	    0.025458	   -0.027462	   -0.040892	   -0.068355	   -0.168385	   -0.191465	   -0.359850	   -0.182212	   -0.157865	   -0.340076	    0.220465	    0.196986	    0.417451
     5.925	0	0	    0	   -0.020469	   -0.008372	   -0.028841	   -0.010523	   -0.007797	   -0.018321	   -0.018637	   -0.002128	   -0.020766	   -0.055397	   -0.062157	   -0.117554	   -0.046676	   -0.109523	   -0.156199	   -0.041281	   -0.053134	   -0.094415	    0.097817	    0.152050	    0.249867	   -0.028043	   -0.036620	   -0.064663	   -0.032590	   -0.038746	   -0.071337	   -0.010402	   -0.019876	   -0.030278	   -0.032091	   -0.032405	   -0.064496	    0.010838	   -0.016151	   -0.005313	   -0.183457	   -0.264253	   -0.447709	    0.021369	    0.044778	    0.066147	    0.182109	    0.069779	    0.251887	   -0.022941	   -0.024603	   -0.047544	    0.006050	   -0.018028	   -0.011978	   -0.011041	    0.005788	   -0.005253	   -0.033389	   -0.031121	   -0.064511	   -0.149782	   -0.179052	   -0.328834	   -0.193468	   -0.162896	   -0.356364	    0.195654	    0.173695	    0.369349
     6.000	0	0	    0	   -0.020293	   -0.005779	   -0.026072	   -0.000276	   -0.000180	   -0.000457	   -0.023372	   -0.013929	   -0.037300	   -0.056324	   -0.067301	   -0.123625	   -0.029384	   -0.073869	   -0.103253	   -0.025765	   -0.065238	   -0.091003	    0.078806	    0.101144	    0.179950	   -0.018228	   -0.035795	   -0.054023	   -0.000145	   -0.010393	   -0.010538	    0.016559	   -0.002933	    0.013626	   -0.035444	   -0.025571	   -0.061015	    0.008382	   -0.002543	    0.005839	   -0.166213	   -0.222979	   -0.389192	    0.023046	    0.025845	    0.048891	    0.200620	    0.039535	    0.240155	   -0.009145	   -0.013168	   -0.022313	    0.008899	   -0.003907	    0.004992	   -0.006401	    0.003103	   -0.003298	   -0.037514	   -0.021519	   -0.059033	   -0.153435	   -0.135120	   -0.288555	   -0.186069	   -0.153599	   -0.339667	    0.141355	    0.128784	    0.270140
     6.075	0	0	    0	   -0.010378	   -0.000427	   -0.010804	   -0.001665	    0.008533	    0.006868	   -0.033759	   -0.011401	   -0.045160	   -0.054991	   -0.062813	   -0.117804	   -0.025634	   -0.039341	   -0.064975	   -0.015644	   -0.026636	   -0.042280	    0.055116	    0.097582	    0.152698	   -0.015152	   -0.028464	   -0.043616	   -0.003664	   -0.000870	   -0.004534	    0.039282	    0.022572	    0.061855	   -0.033277	   -0.025377	   -0.058654	    0.004176	    0.002503	    0.006679	   -0.165439	   -0.193304	   -0.358743	    0.000514	    0.052232	    0.052746	    0.095715	    0.127131	    0.222846	   -0.021971	   -0.020184	   -0.042155	    0.033272	    0.010082	    0.043354	    0.010616	    0.020063	    0.030679	   -0.037004	   -0.013964	   -0.050968	   -0.125046	   -0.106520	   -0.231566	   -0.182715	   -0.163847	   -0.346562	    0.148307	    0.070904	    0.219211
     6.150	0	0	    0	   -0.010430	    0.018116	    0.007686	   -0.002043	    0.012409	    0.010366	   -0.035231	   -0.012766	   -0.047996	   -0.052913	   -0.060038	   -0.112951	   -0.025721	   -0.019212	   -0.044933	   -0.021928	   -0.000383	   -0.022311	    0.060737	    0.087442	    0.148180	   -0.020156	   -0.030591	   -0.050747	   -0.002544	   -0.008771	   -0.011315	    0.048847	    0.047685	    0.096532	   -0.030236	   -0.025280	   -0.055515	    0.002672	    0.006461	    0.009133	   -0.165888	   -0.167572	   -0.333460	    0.008300	    0.035895	    0.044195	    0.110911	    0.109654	    0.220565	   -0.029284	   -0.035961	   -0.065245	    0.047362	    0.026678	    0.074041	    0.026694	    0.035707	    0.062402	   -0.032890	   -0.013116	   -0.046006	   -0.119840	   -0.092042	   -0.211882	   -0.184500	   -0.160819	   -0.345319	    0.130357	    0.065950	    0.196306
     6.225	0	0	    0	    0.009799	   -0.004469	    0.005329	    0.001168	    0.007833	    0.009000	   -0.033866	   -0.015879	   -0.049745	   -0.050227	   -0.060460	   -0.110687	   -0.016045	   -0.024289	   -0.040334	   -0.013183	    0.007035	   -0.006148	    0.074093	    0.076732	    0.150825	   -0.011871	   -0.044096	   -0.055968	    0.000237	   -0.010617	   -0.010380	    0.052380	    0.058743	    0.111123	   -0.029680	   -0.023226	   -0.052906	    0.000919	    0.006200	    0.007120	   -0.156700	   -0.153336	   -0.310035	    0.008650	    0.026564	    0.035213	    0.136745	    0.080362	    0.217107	   -0.031856	   -0.049712	   -0.081568	    0.053877	    0.040969	    0.094846	    0.028819	    0.049154	    0.077973	   -0.032273	   -0.009059	   -0.041332	   -0.113642	   -0.088125	   -0.201767	   -0.176854	   -0.155245	   -0.332100	    0.105267	    0.067649	    0.172915
     6.300	0	0	    0	   -0.009946	    0.014566	    0.004620	   -0.003110	    0.012143	    0.009033	   -0.039726	   -0.011743	   -0.051469	   -0.053042	   -0.058188	   -0.111230	   -0.022567	   -0.015541	   -0.038108	   -0.020691	    0.021840	    0.001149	    0.051348	    0.103494	    0.154842	   -0.017086	   -0.044789	   -0.061875	   -0.001953	   -0.009379	   -0.011332	    0.048824	    0.063708	    0.112531	   -0.032067	   -0.023116	   -0.055183	   -0.002654	    0.007009	    0.004355	   -0.157288	   -0.144396	   -0.301684	    0.002988	    0.031547	    0.034535	    0.127290	    0.085878	    0.213168	   -0.037472	   -0.057969	   -0.095441	    0.051139	    0.045357	    0.096496	    0.027146	    0.051514	    0.078660	   -0.033035	   -0.007226	   -0.040261	   -0.116687	   -0.085243	   -0.201929	   -0.178205	   -0.152053	   -0.330257	    0.104636	    0.063159	    0.167796
     6.375	0	0	    0	   -0.002222	    0.006744	    0.004522	   -0.003460	    0.010956	    0.007496	   -0.035454	   -0.016014	   -0.051468	   -0.058264	   -0.058679	   -0.116943	   -0.023322	   -0.021240	   -0.044562	   -0.017762	    0.010411	   -0.007351	    0.064014	    0.081643	    0.145657	   -0.022028	   -0.040530	   -0.062559	   -0.003780	   -0.009279	   -0.013060	    0.045446	    0.057772	    0.103218	   -0.036633	   -0.024309	   -0.060941	   -0.006937	    0.005367	   -0.001571	   -0.159465	   -0.144723	   -0.304188	    0.002458	    0.020379	    0.022837	    0.126182	    0.084096	    0.210278	   -0.041217	   -0.063221	   -0.104438	    0.046435	    0.044234	    0.090669	    0.021357	    0.050310	    0.071667	   -0.036133	   -0.005647	   -0.041780	   -0.123654	   -0.084319	   -0.207973	   -0.188407	   -0.149954	   -0.338360	    0.103147	    0.057101	    0.160248
     6.450	0	0	    0	   -0.010917	    0.011858	    0.000941	   -0.008934	    0.012017	    0.003083	   -0.030933	   -0.015980	   -0.046914	   -0.065502	   -0.063588	   -0.129090	   -0.040811	   -0.020157	   -0.060968	   -0.026116	    0.013917	   -0.012199	    0.080405	    0.078936	    0.159342	   -0.031075	   -0.038179	   -0.069255	   -0.013612	   -0.006954	   -0.020566	    0.036097	    0.056426	    0.092523	   -0.048018	   -0.026855	   -0.074873	   -0.025880	   -0.001584	   -0.027464	   -0.180568	   -0.136587	   -0.317155	   -0.005686	    0.019775	    0.014089	    0.122380	    0.089530	    0.211910	   -0.047666	   -0.063528	   -0.111193	    0.041983	    0.043797	    0.085780	    0.022273	    0.046621	    0.068894	   -0.045741	   -0.004377	   -0.050118	   -0.131824	   -0.082562	   -0.214386	   -0.196047	   -0.152421	   -0.348468	    0.092952	    0.065123	    0.158075
     6.525	0	0	    0	   -0.008734	    0.014993	    0.006260	   -0.026173	    0.000785	   -0.025388	   -0.015858	   -0.013741	   -0.029599	   -0.061194	   -0.069992	   -0.131186	   -0.039420	   -0.063018	   -0.102438	   -0.028893	   -0.025846	   -0.054738	    0.117293	    0.080644	    0.197937	   -0.029235	   -0.041726	   -0.070961	   -0.057287	   -0.016607	   -0.073894	    0.018780	    0.042901	    0.061681	   -0.051257	   -0.043813	   -0.095070	   -0.024040	   -0.027248	   -0.051288	   -0.215193	   -0.181005	   -0.396199	   -0.009114	    0.022163	    0.013049	    0.112651	    0.107486	    0.220137	   -0.068212	   -0.066439	   -0.134651	    0.029283	    0.047411	    0.076694	    0.023572	    0.052990	    0.076561	   -0.056301	   -0.026835	   -0.083136	   -0.173216	   -0.094936	   -0.268153	   -0.202577	   -0.177697	   -0.380274	    0.092391	    0.045906	    0.138297
     6.600	0	0	    0	   -0.002021	    0.005571	    0.003550	   -0.016354	   -0.006387	   -0.022741	   -0.021400	   -0.002418	   -0.023818	   -0.057336	   -0.073770	   -0.131105	   -0.030310	   -0.063518	   -0.093828	   -0.023344	   -0.028541	   -0.051885	    0.101627	    0.127013	    0.228640	   -0.022408	   -0.043724	   -0.066132	   -0.057244	   -0.044878	   -0.102122	    0.025587	    0.028323	    0.053909	   -0.044087	   -0.046417	   -0.090504	   -0.010583	   -0.025758	   -0.036342	   -0.197656	   -0.236718	   -0.434375	    0.006848	    0.034862	    0.041710	    0.116074	    0.103808	    0.219882	   -0.056315	   -0.073967	   -0.130282	    0.032417	    0.028698	    0.061115	    0.026497	    0.045776	    0.072273	   -0.048482	   -0.033158	   -0.081641	   -0.159386	   -0.139767	   -0.299153	   -0.189789	   -0.174168	   -0.363957	    0.102666	    0.054005	    0.156670
     6.675	0	0	    0	   -0.030180	    0.004870	   -0.025310	   -0.001406	   -0.007960	   -0.009366	   -0.022603	   -0.010510	   -0.033113	   -0.062837	   -0.064479	   -0.127316	   -0.038306	   -0.051509	   -0.089815	   -0.027419	   -0.036793	   -0.064212	    0.109393	    0.094506	    0.203899	   -0.026651	   -0.050350	   -0.077001	   -0.030294	   -0.040008	   -0.070302	    0.031599	    0.032828	    0.064426	   -0.035878	   -0.041081	   -0.076959	    0.010992	   -0.004515	    0.006477	   -0.185637	   -0.225849	   -0.411486	    0.013975	    0.035785	    0.049760	    0.169211	    0.083167	    0.252378	   -0.040729	   -0.066061	   -0.106791	    0.046271	    0.035604	    0.081876	    0.016267	    0.041377	    0.057643	   -0.042374	   -0.025717	   -0.068091	   -0.135370	   -0.119503	   -0.254873	   -0.183101	   -0.167708	   -0.350809	    0.138335	    0.060599	    0.198934
     6.750	0	0	    0	   -0.039298	    0.020074	   -0.019224	    0.011827	    0.013193	    0.025020	   -0.029776	   -0.009925	   -0.039701	   -0.069535	   -0.065724	   -0.135258	   -0.045099	   -0.031170	   -0.076269	   -0.037636	   -0.021980	   -0.059616	    0.070545	    0.096265	    0.166810	   -0.020337	   -0.043918	   -0.064255	    0.012387	   -0.012958	   -0.000571	    0.048663	    0.039379	    0.088042	   -0.035461	   -0.030855	   -0.066317	    0.015902	    0.023394	    0.039295	   -0.169817	   -0.198358	   -0.368176	    0.019215	    0.028144	    0.047359	    0.183342	    0.084400	    0.267742	   -0.034392	   -0.054310	   -0.088702	    0.043993	    0.035634	    0.079627	    0.014525	    0.034892	    0.049417	   -0.043095	   -0.006687	   -0.049782	   -0.136009	   -0.093215	   -0.229224	   -0.171075	   -0.152902	   -0.323978	    0.183546	    0.111325	    0.294871
     6.825	0	0	    0	   -0.019312	    0.001348	   -0.017964	    0.014407	    0.022629	    0.037035	   -0.031291	   -0.012320	   -0.043611	   -0.063116	   -0.068808	   -0.131924	   -0.042242	   -0.044695	   -0.086937	   -0.039288	   -0.043038	   -0.082327	    0.039217	    0.091174	    0.130391	   -0.024480	   -0.027662	   -0.052142	    0.024283	    0.008671	    0.032954	    0.066415	    0.064177	    0.130592	   -0.034265	   -0.028861	   -0.063126	    0.013047	    0.030192	    0.043239	   -0.177708	   -0.175165	   -0.352874	    0.014790	    0.025134	    0.039924	    0.170706	    0.094858	    0.265564	   -0.044624	   -0.053764	   -0.098388	    0.052423	    0.041379	    0.093801	    0.023363	    0.045964	    0.069327	   -0.041524	   -0.009889	   -0.051413	   -0.137249	   -0.090089	   -0.227338	   -0.166640	   -0.135545	   -0.302186	    0.210619	    0.144578	    0.355197
     6.900	0	0	    0	   -0.018133	   -0.006619	   -0.024752	   -0.000179	    0.020263	    0.020083	   -0.008080	   -0.015282	   -0.023362	   -0.060642	   -0.074644	   -0.135286	   -0.085238	   -0.095548	   -0.180786	   -0.045564	   -0.053627	   -0.099191	    0.078506	    0.065140	    0.143646	   -0.041709	   -0.044886	   -0.086595	    0.004637	    0.020401	    0.025038	    0.045914	    0.072885	    0.118799	   -0.043451	   -0.026511	   -0.069962	   -0.023481	    0.005983	   -0.017498	   -0.214550	   -0.176993	   -0.391542	    0.007066	    0.020437	    0.027503	    0.188688	    0.083110	    0.271798	   -0.051882	   -0.055421	   -0.107303	    0.055409	    0.050061	    0.105470	    0.038175	    0.057339	    0.095513	   -0.048362	   -0.012852	   -0.061215	   -0.145128	   -0.086794	   -0.231922	   -0.179774	   -0.128625	   -0.308399	    0.220946	    0.158599	    0.379545
     6.975	0	0	    0	   -0.026368	    0.000934	   -0.025434	    0.005056	   -0.000403	    0.004653	    0.013013	   -0.011495	    0.001518	   -0.043353	   -0.067978	   -0.111331	   -0.097330	   -0.151763	   -0.249093	   -0.024174	   -0.078200	   -0.102374	    0.122113	    0.094587	    0.216700	   -0.040207	   -0.038720	   -0.078927	   -0.056150	   -0.016308	   -0.072458	    0.012882	    0.042113	    0.054995	   -0.031501	   -0.040533	   -0.072034	   -0.022145	   -0.035412	   -0.057556	   -0.236638	   -0.266685	   -0.503323	    0.033886	    0.032729	    0.066615	    0.201826	    0.095511	    0.297338	   -0.060612	   -0.053469	   -0.114081	    0.029926	    0.055423	    0.085348	    0.027025	    0.059084	    0.086109	   -0.046700	   -0.032777	   -0.079478	   -0.212393	   -0.124102	   -0.336495	   -0.168720	   -0.138611	   -0.307331	    0.238138	    0.183318	    0.421456
     7.050	0	0	    0	   -0.023498	    0.005705	   -0.017793	    0.002871	    0.005921	    0.008793	    0.022907	   -0.003268	    0.019639	   -0.033255	   -0.054892	   -0.088147	   -0.098635	   -0.161148	   -0.259784	   -0.019046	   -0.080070	   -0.099117	    0.123417	    0.150678	    0.274095	   -0.032730	   -0.027741	   -0.060471	   -0.054175	   -0.037943	   -0.092117	   -0.004563	    0.001949	   -0.002614	   -0.020681	   -0.029620	   -0.050301	   -0.018880	   -0.035996	   -0.054876	   -0.222230	   -0.297021	   -0.519251	    0.033810	    0.050813	    0.084623	    0.225114	    0.089385	    0.314498	   -0.044437	   -0.038148	   -0.082585	   -0.010748	    0.010526	   -0.000222	    0.019650	    0.041412	    0.061062	   -0.037716	   -0.036786	   -0.074502	   -0.219882	   -0.172374	   -0.392256	   -0.174493	   -0.110899	   -0.285392	    0.238436	    0.198300	    0.436736
     7.125	0	0	    0	   -0.035350	    0.018812	   -0.016538	    0.009862	    0.003897	    0.013759	    0.026852	    0.001345	    0.028197	   -0.034524	   -0.046185	   -0.080709	   -0.095155	   -0.164535	   -0.259690	   -0.007280	   -0.094753	   -0.102033	    0.165696	    0.131483	    0.297178	   -0.034876	   -0.012978	   -0.047853	   -0.051763	   -0.037083	   -0.088846	   -0.005417	   -0.017337	   -0.022754	   -0.020022	   -0.024049	   -0.044071	   -0.014879	   -0.034443	   -0.049322	   -0.211752	   -0.310659	   -0.522411	    0.032437	    0.037010	    0.069447	    0.209608	    0.104636	    0.314244	   -0.040840	   -0.023916	   -0.064756	   -0.014103	   -0.013051	   -0.027154	    0.011152	    0.032323	    0.043474	   -0.039065	   -0.035346	   -0.074411	   -0.217504	   -0.190851	   -0.408355	   -0.175089	   -0.136264	   -0.311354	    0.228943	    0.201960	    0.430902
     7.200	0	0	    0	   -0.036446	    0.008164	   -0.028283	    0.001808	    0.002043	    0.003851	    0.022820	    0.001824	    0.024644	   -0.045454	   -0.046496	   -0.091950	   -0.099168	   -0.159120	   -0.258288	   -0.019740	   -0.095200	   -0.114940	    0.145482	    0.139587	    0.285069	   -0.037387	   -0.010825	   -0.048212	   -0.055031	   -0.032762	   -0.087794	   -0.009977	   -0.019242	   -0.029219	   -0.026643	   -0.024386	   -0.051029	   -0.014868	   -0.031994	   -0.046862	   -0.212432	   -0.309304	   -0.521736	    0.035084	    0.029200	    0.064284	    0.203134	    0.094700	    0.297834	   -0.044334	   -0.019266	   -0.063600	   -0.015689	   -0.018224	   -0.033913	    0.004300	    0.026118	    0.030418	   -0.044571	   -0.035874	   -0.080445	   -0.219771	   -0.193736	   -0.413507	   -0.184271	   -0.143529	   -0.327800	    0.235920	    0.185250	    0.421170
     7.275	0	0	    0	   -0.030828	    0.000145	   -0.030683	   -0.013595	    0.001025	   -0.012570	    0.010500	    0.008489	    0.018989	   -0.052098	   -0.056092	   -0.108190	   -0.102654	   -0.157102	   -0.259756	   -0.040991	   -0.089300	   -0.130291	    0.114056	    0.145709	    0.259765	   -0.034605	   -0.015593	   -0.050198	   -0.060601	   -0.027883	   -0.088485	   -0.015629	   -0.018077	   -0.033706	   -0.028892	   -0.029653	   -0.058545	   -0.009208	   -0.025502	   -0.034710	   -0.218705	   -0.302385	   -0.521090	    0.024770	    0.035875	    0.060645	    0.185778	    0.075436	    0.261215	   -0.050072	   -0.017507	   -0.067579	   -0.013950	   -0.018427	   -0.032377	   -0.005098	    0.021633	    0.016536	   -0.051094	   -0.036536	   -0.087631	   -0.216293	   -0.190951	   -0.407243	   -0.191878	   -0.149049	   -0.340927	    0.205050	    0.168006	    0.373056
     7.350	0	0	    0	   -0.053573	    0.010027	   -0.043546	   -0.016403	   -0.000633	   -0.017036	   -0.011280	    0.006207	   -0.005073	   -0.063823	   -0.056428	   -0.120251	   -0.086658	   -0.136404	   -0.223062	   -0.045922	   -0.094047	   -0.139969	    0.083983	    0.117962	    0.201945	   -0.046815	   -0.016801	   -0.063617	   -0.045569	   -0.023184	   -0.068754	   -0.019913	   -0.011585	   -0.031498	   -0.034568	   -0.025028	   -0.059596	   -0.008469	   -0.008144	   -0.016613	   -0.210225	   -0.309637	   -0.519863	    0.019458	    0.021321	    0.040779	    0.177895	    0.067431	    0.245326	   -0.046136	   -0.028186	   -0.074322	   -0.014262	   -0.015905	   -0.030167	   -0.023641	    0.012996	   -0.010644	   -0.056465	   -0.028636	   -0.085101	   -0.192640	   -0.179687	   -0.372327	   -0.193062	   -0.162626	   -0.355689	    0.137172	    0.132140	    0.269312
     7.425	0	0	    0	   -0.041754	   -0.005804	   -0.047557	   -0.009111	    0.007307	   -0.001804	   -0.026273	   -0.000789	   -0.027061	   -0.066478	   -0.053630	   -0.120108	   -0.075085	   -0.107565	   -0.182650	   -0.032550	   -0.079855	   -0.112405	    0.064354	    0.085122	    0.149475	   -0.042668	   -0.033939	   -0.076608	   -0.017359	   -0.011137	   -0.028496	   -0.010040	   -0.006767	   -0.016808	   -0.033226	   -0.022339	   -0.055565	   -0.012041	   -0.000124	   -0.012165	   -0.197524	   -0.265351	   -0.462875	    0.000179	    0.014817	    0.014995	    0.125706	    0.033149	    0.158854	   -0.034565	   -0.023471	   -0.058036	   -0.012910	   -0.004483	   -0.017392	   -0.027525	    0.008188	   -0.019337	   -0.062176	   -0.019559	   -0.081734	   -0.193004	   -0.136816	   -0.329820	   -0.179164	   -0.163689	   -0.342853	    0.093665	    0.056246	    0.149911
     7.500	0	0	    0	   -0.038539	    0.010810	   -0.027729	   -0.009427	    0.014417	    0.004990	   -0.036510	   -0.006196	   -0.042706	   -0.064390	   -0.053893	   -0.118283	   -0.068199	   -0.077862	   -0.146061	   -0.021922	   -0.060600	   -0.082522	    0.038801	    0.063655	    0.102456	   -0.038013	   -0.030159	   -0.068172	   -0.003224	    0.010517	    0.007294	    0.003531	    0.006196	    0.009727	   -0.036116	   -0.019515	   -0.055631	   -0.014112	    0.007200	   -0.006912	   -0.191847	   -0.227132	   -0.418979	    0.014315	    0.001371	    0.015686	    0.116494	    0.035680	    0.152175	   -0.032804	   -0.019811	   -0.052615	   -0.009674	    0.000441	   -0.009232	   -0.023225	    0.008567	   -0.014658	   -0.060414	   -0.019265	   -0.079680	   -0.177739	   -0.128185	   -0.305925	   -0.183401	   -0.151618	   -0.335019	    0.074185	    0.025387	    0.099572
     7.575	0	0	    0	   -0.034862	    0.012606	   -0.022257	   -0.009067	    0.014752	    0.005685	   -0.038471	   -0.008728	   -0.047199	   -0.061486	   -0.054048	   -0.115534	   -0.060005	   -0.057981	   -0.117986	   -0.020691	   -0.034654	   -0.055345	    0.024633	    0.068043	    0.092676	   -0.034918	   -0.034320	   -0.069238	   -0.005575	    0.013524	    0.007949	    0.019629	    0.020719	    0.040347	   -0.034046	   -0.018174	   -0.052221	   -0.015418	    0.009385	   -0.006033	   -0.184152	   -0.215375	   -0.399527	    0.013664	    0.013122	    0.026786	    0.104004	    0.036384	    0.140388	   -0.043967	   -0.025065	   -0.069032	    0.005394	    0.008166	    0.013560	   -0.011552	    0.015282	    0.003731	   -0.059290	   -0.012999	   -0.072289	   -0.159059	   -0.108824	   -0.267883	   -0.179803	   -0.156067	   -0.335870	    0.064984	    0.006138	    0.071122
     7.650	0	0	    0	   -0.032730	    0.011777	   -0.020954	   -0.008214	    0.014489	    0.006276	   -0.040697	   -0.007367	   -0.048064	   -0.061795	   -0.053944	   -0.115739	   -0.050317	   -0.059605	   -0.109922	   -0.025943	   -0.018857	   -0.044801	    0.026173	    0.059386	    0.085560	   -0.034354	   -0.039642	   -0.073997	   -0.003978	    0.007239	    0.003262	    0.019309	    0.032400	    0.051708	   -0.033952	   -0.017243	   -0.051194	   -0.015564	    0.008679	   -0.006885	   -0.180232	   -0.191086	   -0.371318	    0.010117	    0.017900	    0.028017	    0.104095	    0.031413	    0.135507	   -0.049451	   -0.039103	   -0.088554	    0.013013	    0.016911	    0.029925	   -0.007450	    0.022392	    0.014942	   -0.057526	   -0.010288	   -0.067813	   -0.155273	   -0.092647	   -0.247921	   -0.176932	   -0.147041	   -0.323974	    0.069214	    0.000667	    0.069882
     7.725	0	0	    0	   -0.035856	    0.013867	   -0.021989	   -0.006061	    0.010599	    0.004538	   -0.036077	   -0.013827	   -0.049904	   -0.062156	   -0.051640	   -0.113796	   -0.049219	   -0.050154	   -0.099373	   -0.014264	   -0.025464	   -0.039728	    0.038634	    0.040905	    0.079540	   -0.035078	   -0.038971	   -0.074049	   -0.001556	    0.007549	    0.005993	    0.023980	    0.032305	    0.056285	   -0.033393	   -0.017955	   -0.051348	   -0.011905	    0.008223	   -0.003681	   -0.167246	   -0.188670	   -0.355916	    0.013070	    0.010984	    0.024054	    0.116300	    0.048798	    0.165098	   -0.044089	   -0.048669	   -0.092757	    0.017833	    0.021889	    0.039722	   -0.002287	    0.024649	    0.022363	   -0.053414	   -0.009483	   -0.062897	   -0.145081	   -0.097476	   -0.242558	   -0.162256	   -0.150407	   -0.312663	    0.074582	    0.002265	    0.076847
     7.800	0	0	    0	   -0.022127	    0.021339	   -0.000788	   -0.003504	    0.015840	    0.012337	   -0.033581	   -0.011629	   -0.045209	   -0.060492	   -0.053615	   -0.114107	   -0.042183	   -0.050825	   -0.093009	   -0.010386	   -0.022206	   -0.032592	    0.038852	    0.068497	    0.107349	   -0.029384	   -0.040820	   -0.070204	    0.010184	    0.010456	    0.020640	    0.027537	    0.035915	    0.063452	   -0.033581	   -0.018636	   -0.052217	   -0.009968	    0.009790	   -0.000178	   -0.158926	   -0.177880	   -0.336805	    0.012019	    0.007494	    0.019512	    0.147371	    0.038925	    0.186296	   -0.033467	   -0.049859	   -0.083326	    0.030389	    0.023848	    0.054238	    0.001556	    0.026146	    0.027701	   -0.048338	   -0.008333	   -0.056671	   -0.135831	   -0.095920	   -0.231752	   -0.159529	   -0.148650	   -0.308179	    0.095671	    0.003626	    0.099297
     7.875	0	0	    0	   -0.013908	    0.005003	   -0.008905	   -0.003763	    0.014761	    0.010998	   -0.031900	   -0.008358	   -0.040259	   -0.059992	   -0.053669	   -0.113661	   -0.039745	   -0.044553	   -0.084298	   -0.007462	   -0.023595	   -0.031058	    0.070225	    0.060910	    0.131135	   -0.031512	   -0.037408	   -0.068921	    0.009729	    0.014508	    0.024237	    0.028382	    0.034346	    0.062727	   -0.034410	   -0.022078	   -0.056488	   -0.009097	    0.010208	    0.001111	   -0.156972	   -0.170371	   -0.327343	    0.012881	    0.000545	    0.013426	    0.156510	    0.034475	    0.190985	   -0.030312	   -0.050714	   -0.081026	    0.033235	    0.025667	    0.058902	    0.002056	    0.026206	    0.028261	   -0.046310	   -0.006309	   -0.052619	   -0.133609	   -0.090621	   -0.224231	   -0.161992	   -0.147516	   -0.309507	    0.106462	    0.016992	    0.123454
     7.950	0	0	    0	   -0.027921	    0.020780	   -0.007142	   -0.016644	    0.016665	    0.000021	   -0.030485	   -0.009402	   -0.039887	   -0.067400	   -0.055536	   -0.122935	   -0.046263	   -0.037737	   -0.084000	   -0.019037	   -0.018046	   -0.037083	    0.065417	    0.080055	    0.145472	   -0.042042	   -0.038307	   -0.080349	    0.004414	    0.012553	    0.016967	    0.021145	    0.031882	    0.053027	   -0.042628	   -0.022491	   -0.065119	   -0.020698	    0.007037	   -0.013660	   -0.154722	   -0.174537	   -0.329258	    0.004051	    0.008870	    0.012920	    0.141649	    0.060683	    0.202332	   -0.032398	   -0.052398	   -0.084797	    0.036435	    0.024367	    0.060802	    0.003800	    0.026060	    0.029860	   -0.047573	   -0.004636	   -0.052209	   -0.132372	   -0.091304	   -0.223676	   -0.166662	   -0.150890	   -0.317551	    0.110809	    0.043606	    0.154415
     8.025	0	0	    0	   -0.026871	    0.029091	    0.002220	   -0.023770	    0.002836	   -0.020934	   -0.013889	   -0.010269	   -0.024158	   -0.059518	   -0.070312	   -0.129830	   -0.068443	   -0.078411	   -0.146854	   -0.030507	   -0.025948	   -0.056455	    0.116341	    0.079812	    0.196153	   -0.050542	   -0.040262	   -0.090804	   -0.032524	    0.006131	   -0.026393	    0.008078	    0.024212	    0.032290	   -0.050526	   -0.035455	   -0.085980	   -0.040738	   -0.021856	   -0.062594	   -0.192091	   -0.173360	   -0.365451	   -0.006115	    0.016300	    0.010184	    0.143208	    0.085340	    0.228548	   -0.049570	   -0.053856	   -0.103426	    0.027449	    0.028520	    0.055970	    0.014181	    0.028116	    0.042297	   -0.057988	   -0.010431	   -0.068420	   -0.149140	   -0.089487	   -0.238627	   -0.190484	   -0.153310	   -0.343794	    0.125501	    0.028738	    0.154238
     8.100	0	0	    0	   -0.005991	    0.032692	    0.026701	   -0.016949	   -0.005825	   -0.022774	    0.012407	   -0.005577	    0.006829	   -0.035124	   -0.054203	   -0.089327	   -0.077886	   -0.120408	   -0.198294	   -0.023307	   -0.060261	   -0.083568	    0.172636	    0.106050	    0.278685	   -0.027038	   -0.024935	   -0.051973	   -0.066997	   -0.029854	   -0.096851	   -0.020202	   -0.006736	   -0.026938	   -0.020029	   -0.046292	   -0.066321	   -0.026942	   -0.045089	   -0.072031	   -0.214781	   -0.260064	   -0.474845	    0.025923	    0.033556	    0.059479	    0.156561	    0.090421	    0.246982	   -0.057810	   -0.064093	   -0.121903	   -0.005892	    0.013868	    0.007975	    0.017175	    0.023363	    0.040538	   -0.040828	   -0.041302	   -0.082129	   -0.200874	   -0.132763	   -0.333637	   -0.173625	   -0.166683	   -0.340308	    0.119159	    0.046068	    0.165228
     8.175	0	0	    0	    0.018080	    0.036315	    0.054395	   -0.008646	   -0.004356	   -0.013001	    0.014361	    0.002069	    0.016430	   -0.026869	   -0.045277	   -0.072147	   -0.075098	   -0.131050	   -0.206147	   -0.027764	   -0.062021	   -0.089785	    0.166794	    0.143202	    0.309995	   -0.018254	   -0.005895	   -0.024149	   -0.065502	   -0.036535	   -0.102037	   -0.026036	   -0.034792	   -0.060828	   -0.014445	   -0.029829	   -0.044273	   -0.021780	   -0.041081	   -0.062860	   -0.210453	   -0.280612	   -0.491065	    0.030888	    0.057565	    0.088453	    0.134334	    0.113480	    0.247813	   -0.051496	   -0.042770	   -0.094266	   -0.025500	   -0.023378	   -0.048877	    0.013254	    0.016810	    0.030064	   -0.036244	   -0.037965	   -0.074209	   -0.206863	   -0.173944	   -0.380807	   -0.170913	   -0.139465	   -0.310378	    0.119700	    0.052451	    0.172151
     8.250	0	0	    0	    0.003086	    0.052974	    0.056060	   -0.011659	    0.003056	   -0.008603	    0.011810	    0.003207	    0.015017	   -0.030457	   -0.039953	   -0.070409	   -0.085362	   -0.129395	   -0.214756	   -0.030130	   -0.062391	   -0.092521	    0.170717	    0.150930	    0.321647	   -0.017800	   -0.000598	   -0.018398	   -0.059837	   -0.029980	   -0.089817	   -0.028005	   -0.037298	   -0.065303	   -0.016228	   -0.027309	   -0.043538	   -0.023127	   -0.039917	   -0.063044	   -0.213325	   -0.280928	   -0.494253	    0.046409	    0.051758	    0.098167	    0.186561	    0.091589	    0.278151	   -0.053147	   -0.031358	   -0.084505	   -0.027805	   -0.032527	   -0.060332	    0.008449	    0.011645	    0.020094	   -0.038588	   -0.036654	   -0.075241	   -0.212063	   -0.182586	   -0.394650	   -0.178975	   -0.149523	   -0.328498	    0.169617	    0.074886	    0.244502
     8.325	0	0	    0	    0.003852	    0.049887	    0.053739	   -0.012842	    0.002789	   -0.010053	    0.007908	    0.007252	    0.015159	   -0.032159	   -0.042296	   -0.074454	   -0.088386	   -0.133518	   -0.221904	   -0.037339	   -0.059946	   -0.097285	    0.134966	    0.195248	    0.330214	   -0.017250	    0.001152	   -0.016098	   -0.058665	   -0.028111	   -0.086776	   -0.033987	   -0.042817	   -0.076805	   -0.019583	   -0.026884	   -0.046467	   -0.025151	   -0.041226	   -0.066377	   -0.216639	   -0.286211	   -0.502850	    0.035680	    0.056756	    0.092437	    0.189792	    0.093075	    0.282867	   -0.059966	   -0.025717	   -0.085683	   -0.033644	   -0.037874	   -0.071518	    0.002096	    0.007893	    0.009989	   -0.039909	   -0.035476	   -0.075385	   -0.213092	   -0.189097	   -0.402189	   -0.194966	   -0.152123	   -0.347089	    0.196111	    0.117655	    0.313766
     8.400	0	0	    0	    0.011395	    0.033823	    0.045218	   -0.013761	    0.001828	   -0.011933	    0.006784	    0.001016	    0.007800	   -0.032686	   -0.047003	   -0.079689	   -0.085289	   -0.140616	   -0.225905	   -0.033184	   -0.068341	   -0.101525	    0.148524	    0.172116	    0.320640	   -0.012664	   -0.003848	   -0.016512	   -0.057852	   -0.025838	   -0.083690	   -0.036635	   -0.047104	   -0.083739	   -0.021317	   -0.028749	   -0.050066	   -0.024721	   -0.042828	   -0.067549	   -0.220728	   -0.291388	   -0.512116	    0.027506	    0.056117	    0.083623	    0.186349	    0.096650	    0.282999	   -0.064971	   -0.027481	   -0.092452	   -0.037238	   -0.044085	   -0.081323	   -0.003330	    0.003206	   -0.000124	   -0.041935	   -0.035357	   -0.077292	   -0.214502	   -0.192116	   -0.406618	   -0.204600	   -0.157811	   -0.362411	    0.208289	    0.141600	    0.349888
     8.475	0	0	    0	    0.005911	    0.027108	    0.033020	   -0.014240	    0.002407	   -0.011833	    0.003787	   -0.000417	    0.003369	   -0.035287	   -0.047224	   -0.082510	   -0.092117	   -0.135569	   -0.227686	   -0.035463	   -0.071276	   -0.106739	    0.145754	    0.179416	    0.325170	   -0.018859	    0.004289	   -0.014570	   -0.060048	   -0.025304	   -0.085352	   -0.039690	   -0.049912	   -0.089602	   -0.022337	   -0.029875	   -0.052212	   -0.024332	   -0.042930	   -0.067262	   -0.223608	   -0.291685	   -0.515293	    0.032612	    0.050638	    0.083250	    0.217546	    0.077710	    0.295255	   -0.066668	   -0.026419	   -0.093088	   -0.041429	   -0.047359	   -0.088788	   -0.006852	    0.000500	   -0.006352	   -0.042497	   -0.035844	   -0.078341	   -0.218737	   -0.190295	   -0.409032	   -0.206739	   -0.160217	   -0.366955	    0.233490	    0.148418	    0.381908
     8.550	0	0	    0	   -0.011764	    0.040011	    0.028247	   -0.013857	    0.002124	   -0.011733	    0.008667	   -0.004527	    0.004139	   -0.038469	   -0.044407	   -0.082875	   -0.097026	   -0.135643	   -0.232669	   -0.034021	   -0.069931	   -0.103952	    0.159975	    0.172254	    0.332229	   -0.024219	    0.004569	   -0.019650	   -0.063148	   -0.024664	   -0.087813	   -0.042201	   -0.050987	   -0.093188	   -0.021143	   -0.030137	   -0.051280	   -0.022541	   -0.040894	   -0.063435	   -0.227707	   -0.291470	   -0.519177	    0.029249	    0.047945	    0.077194	    0.189181	    0.101790	    0.290970	   -0.067949	   -0.026379	   -0.094328	   -0.046027	   -0.048046	   -0.094073	   -0.007357	    0.000676	   -0.006681	   -0.040914	   -0.034344	   -0.075258	   -0.218047	   -0.194064	   -0.412111	   -0.207583	   -0.159555	   -0.367138	    0.220829	    0.175691	    0.396520
     8.625	0	0	    0	   -0.026237	    0.039116	    0.012879	   -0.017027	    0.005295	   -0.011732	   -0.000483	    0.000560	    0.000077	   -0.052061	   -0.046428	   -0.098489	   -0.097826	   -0.135350	   -0.233176	   -0.040335	   -0.063320	   -0.103655	    0.143342	    0.180383	    0.323725	   -0.032599	    0.001414	   -0.031186	   -0.061471	   -0.024108	   -0.085579	   -0.045354	   -0.050580	   -0.095934	   -0.028199	   -0.030642	   -0.058840	   -0.028440	   -0.037284	   -0.065723	   -0.230489	   -0.293391	   -0.523880	    0.024245	    0.049235	    0.073480	    0.209240	    0.080821	    0.290061	   -0.071164	   -0.024774	   -0.095938	   -0.048828	   -0.049987	   -0.098815	   -0.017066	   -0.000278	   -0.017343	   -0.046993	   -0.031697	   -0.078689	   -0.216346	   -0.195624	   -0.411970	   -0.217597	   -0.157624	   -0.375220	    0.247320	    0.156436	    0.403756
     8.700	0	0	    0	   -0.063959	    0.030287	   -0.033672	   -0.025162	    0.007401	   -0.017761	   -0.032394	    0.006084	   -0.026309	   -0.073098	   -0.055634	   -0.128731	   -0.105092	   -0.123725	   -0.228817	   -0.054253	   -0.058658	   -0.112912	    0.074250	    0.221498	    0.295748	   -0.037602	   -0.015094	   -0.052695	   -0.060999	   -0.022139	   -0.083138	   -0.053313	   -0.046087	   -0.099400	   -0.043550	   -0.032007	   -0.075556	   -0.026630	   -0.028681	   -0.055311	   -0.237450	   -0.289217	   -0.526667	   -0.004280	    0.058857	    0.054576	    0.183620	    0.086282	    0.269902	   -0.077020	   -0.028838	   -0.105857	   -0.050064	   -0.048775	   -0.098839	   -0.041276	   -0.004348	   -0.045624	   -0.065466	   -0.029537	   -0.095003	   -0.223294	   -0.191527	   -0.414821	   -0.235007	   -0.162501	   -0.397508	    0.217577	    0.162057	    0.379634
     8.775	0	0	    0	   -0.037485	    0.010400	   -0.027085	   -0.021992	    0.009158	   -0.012833	   -0.043749	   -0.004977	   -0.048726	   -0.075812	   -0.060501	   -0.136314	   -0.084886	   -0.113829	   -0.198715	   -0.060916	   -0.067642	   -0.128559	    0.062434	    0.141202	    0.203637	   -0.026539	   -0.016903	   -0.043442	   -0.030663	   -0.009843	   -0.040506	   -0.043976	   -0.040859	   -0.084835	   -0.049185	   -0.030746	   -0.079931	   -0.019951	   -0.012289	   -0.032240	   -0.224845	   -0.277649	   -0.502494	   -0.008849	    0.036971	    0.028122	    0.182996	    0.067244	    0.250239	   -0.053168	   -0.026443	   -0.079611	   -0.046228	   -0.040308	   -0.086536	   -0.043071	   -0.016695	   -0.059766	   -0.063918	   -0.025608	   -0.089527	   -0.185951	   -0.169717	   -0.355668	   -0.227689	   -0.178686	   -0.406376	    0.225435	    0.147596	    0.373030
     8.850	0	0	    0	   -0.021402	   -0.007190	   -0.028592	   -0.008541	    0.009725	    0.001185	   -0.035718	   -0.018140	   -0.053858	   -0.070940	   -0.060002	   -0.130942	   -0.073163	   -0.095524	   -0.168687	   -0.040241	   -0.072317	   -0.112558	    0.081349	    0.096863	    0.178212	   -0.021704	   -0.014232	   -0.035936	   -0.002120	    0.011010	    0.008891	   -0.032208	   -0.031607	   -0.063815	   -0.045232	   -0.031363	   -0.076595	   -0.017142	   -0.004217	   -0.021359	   -0.209697	   -0.230877	   -0.440574	    0.007463	    0.032542	    0.040005	    0.191847	    0.057955	    0.249802	   -0.029558	   -0.015151	   -0.044709	   -0.031787	   -0.036793	   -0.068579	   -0.036037	   -0.017824	   -0.053861	   -0.060372	   -0.017129	   -0.077500	   -0.171665	   -0.132029	   -0.303694	   -0.211397	   -0.158218	   -0.369616	    0.226068	    0.151418	    0.377486
     8.925	0	0	    0	   -0.019399	    0.000534	   -0.018865	   -0.007584	    0.014104	    0.006519	   -0.038019	   -0.017369	   -0.055388	   -0.066962	   -0.055394	   -0.122356	   -0.059773	   -0.081021	   -0.140794	   -0.030670	   -0.061735	   -0.092405	    0.084964	    0.082464	    0.167428	   -0.017225	   -0.019902	   -0.037127	    0.007318	    0.016218	    0.023536	   -0.023756	   -0.027501	   -0.051257	   -0.042497	   -0.030062	   -0.072559	   -0.014998	   -0.001376	   -0.016374	   -0.189753	   -0.227805	   -0.417558	    0.003016	    0.030347	    0.033364	    0.160668	    0.077828	    0.238495	   -0.021974	   -0.015368	   -0.037342	   -0.019398	   -0.030568	   -0.049966	   -0.030151	   -0.014713	   -0.044865	   -0.056227	   -0.014702	   -0.070929	   -0.156541	   -0.118619	   -0.275160	   -0.210170	   -0.170607	   -0.380777	    0.205464	    0.130339	    0.335804
     9.000	0	0	    0	   -0.021445	    0.022272	    0.000827	   -0.008597	    0.019177	    0.010579	   -0.036503	   -0.018902	   -0.055405	   -0.064436	   -0.055096	   -0.119533	   -0.051577	   -0.059812	   -0.111389	   -0.024912	   -0.037745	   -0.062658	    0.043106	    0.112543	    0.155650	   -0.019399	   -0.014795	   -0.034194	    0.011939	    0.015516	    0.027456	   -0.023621	   -0.022346	   -0.045967	   -0.042835	   -0.028262	   -0.071098	   -0.014853	   -0.000039	   -0.014892	   -0.177628	   -0.207485	   -0.385113	    0.008676	    0.030388	    0.039064	    0.192221	    0.069349	    0.261571	   -0.020605	   -0.019785	   -0.040390	   -0.014769	   -0.025373	   -0.040142	   -0.029232	   -0.011928	   -0.041160	   -0.054064	   -0.012320	   -0.066384	   -0.148656	   -0.108016	   -0.256672	   -0.201542	   -0.166387	   -0.367929	    0.159045	    0.124486	    0.283531
     9.075	0	0	    0	   -0.012514	    0.016864	    0.004350	   -0.006088	    0.015051	    0.008964	   -0.040233	   -0.014251	   -0.054484	   -0.061192	   -0.056392	   -0.117584	   -0.042507	   -0.055018	   -0.097526	   -0.019630	   -0.023035	   -0.042665	    0.056667	    0.101608	    0.158275	   -0.019727	   -0.015693	   -0.035420	    0.012343	    0.013376	    0.025720	   -0.025246	   -0.020125	   -0.045370	   -0.043062	   -0.028458	   -0.071520	   -0.015275	   -0.000063	   -0.015338	   -0.173158	   -0.189174	   -0.362332	   -0.011350	    0.046657	    0.035307	    0.109168	    0.143367	    0.252535	   -0.019620	   -0.024678	   -0.044298	   -0.012946	   -0.023960	   -0.036906	   -0.028133	   -0.011411	   -0.039544	   -0.052599	   -0.011023	   -0.063622	   -0.148258	   -0.098910	   -0.247168	   -0.198794	   -0.159060	   -0.357854	    0.140460	    0.078457	    0.218917
     9.150	0	0	    0	   -0.006924	    0.017658	    0.010734	   -0.005766	    0.013052	    0.007286	   -0.037172	   -0.016327	   -0.053499	   -0.065199	   -0.051471	   -0.116670	   -0.043665	   -0.043828	   -0.087494	   -0.008074	   -0.022082	   -0.030156	    0.064647	    0.087100	    0.151747	   -0.018624	   -0.016044	   -0.034668	    0.010564	    0.015237	    0.025802	   -0.023795	   -0.022661	   -0.046456	   -0.044286	   -0.028833	   -0.073119	   -0.015616	    0.000692	   -0.014923	   -0.169238	   -0.178202	   -0.347440	   -0.010798	    0.034355	    0.023557	    0.101081	    0.137266	    0.238346	   -0.018514	   -0.024505	   -0.043020	   -0.011219	   -0.022545	   -0.033764	   -0.028454	   -0.011422	   -0.039875	   -0.051902	   -0.009619	   -0.061521	   -0.142877	   -0.100576	   -0.243453	   -0.193297	   -0.160946	   -0.354242	    0.122365	    0.060151	    0.182516
     9.225	0	0	    0	    0.001647	    0.014989	    0.016636	   -0.005570	    0.010003	    0.004433	   -0.034547	   -0.020298	   -0.054845	   -0.064416	   -0.054009	   -0.118425	   -0.041830	   -0.045227	   -0.087056	   -0.002693	   -0.029517	   -0.032210	    0.098125	    0.053160	    0.151285	   -0.017158	   -0.017889	   -0.035047	    0.010342	    0.014021	    0.024363	   -0.024341	   -0.022835	   -0.047177	   -0.044872	   -0.030183	   -0.075055	   -0.016448	    0.000804	   -0.015644	   -0.166681	   -0.177119	   -0.343800	   -0.006572	    0.028700	    0.022129	    0.105684	    0.130146	    0.235830	   -0.018588	   -0.027894	   -0.046483	   -0.010247	   -0.022625	   -0.032872	   -0.027778	   -0.012268	   -0.040046	   -0.051364	   -0.009146	   -0.060510	   -0.138914	   -0.100057	   -0.238972	   -0.190575	   -0.161457	   -0.352032	    0.128361	    0.055016	    0.183377
     9.300	0	0	    0	   -0.016350	    0.024626	    0.008276	   -0.011955	    0.013177	    0.001222	   -0.041142	   -0.017645	   -0.058787	   -0.072884	   -0.054126	   -0.127009	   -0.045595	   -0.036222	   -0.081817	   -0.016067	   -0.013653	   -0.029720	    0.066799	    0.079321	    0.146121	   -0.023078	   -0.017419	   -0.040497	    0.008893	    0.013195	    0.022089	   -0.026169	   -0.022969	   -0.049138	   -0.049726	   -0.028866	   -0.078592	   -0.029972	    0.001589	   -0.028383	   -0.164636	   -0.177177	   -0.341813	   -0.010201	    0.032024	    0.021823	    0.102384	    0.121599	    0.223983	   -0.022024	   -0.028694	   -0.050718	   -0.011848	   -0.020187	   -0.032034	   -0.026972	   -0.012171	   -0.039144	   -0.052547	   -0.008335	   -0.060882	   -0.135785	   -0.103095	   -0.238880	   -0.190228	   -0.163264	   -0.353492	    0.119609	    0.059213	    0.178822
     9.375	0	0	    0	   -0.023045	    0.030126	    0.007081	   -0.028633	    0.002693	   -0.025940	   -0.017374	   -0.011508	   -0.028882	   -0.061231	   -0.068710	   -0.129941	   -0.102158	   -0.088270	   -0.190428	   -0.038064	   -0.029043	   -0.067107	    0.108300	    0.096241	    0.204541	   -0.032517	   -0.023264	   -0.055781	   -0.032296	    0.015880	   -0.016416	   -0.041908	   -0.025130	   -0.067038	   -0.054633	   -0.040749	   -0.095383	   -0.047032	   -0.039236	   -0.086268	   -0.211102	   -0.184040	   -0.395143	   -0.009329	    0.019160	    0.009831	    0.144226	    0.093961	    0.238187	   -0.040457	   -0.030993	   -0.071451	   -0.008936	   -0.017355	   -0.026291	   -0.008372	   -0.005536	   -0.013909	   -0.062355	   -0.024741	   -0.087096	   -0.168272	   -0.097815	   -0.266087	   -0.198466	   -0.177526	   -0.375993	    0.119645	    0.041969	    0.161614
     9.450	0	0	    0	   -0.018834	    0.041778	    0.022945	   -0.021570	   -0.006454	   -0.028025	    0.008708	   -0.005751	    0.002958	   -0.044562	   -0.049723	   -0.094285	   -0.098812	   -0.141025	   -0.239836	   -0.031015	   -0.052688	   -0.083703	    0.136311	    0.168850	    0.305161	   -0.018201	   -0.011573	   -0.029775	   -0.070145	   -0.030360	   -0.100506	   -0.052754	   -0.047314	   -0.100067	   -0.027766	   -0.042632	   -0.070399	   -0.025114	   -0.044336	   -0.069451	   -0.234521	   -0.274882	   -0.509403	    0.031709	    0.047097	    0.078806	    0.187232	    0.084694	    0.271926	   -0.064087	   -0.045466	   -0.109553	   -0.031535	   -0.027564	   -0.059099	    0.001305	    0.000648	    0.001953	   -0.034457	   -0.039101	   -0.073558	   -0.210109	   -0.162690	   -0.372800	   -0.185842	   -0.159135	   -0.344977	    0.160750	    0.083863	    0.244613
     9.525	0	0	    0	   -0.012868	    0.032225	    0.019357	   -0.019113	   -0.002578	   -0.021692	    0.005033	    0.009212	    0.014245	   -0.043210	   -0.046827	   -0.090037	   -0.103389	   -0.143103	   -0.246492	   -0.036629	   -0.056929	   -0.093558	    0.159704	    0.171190	    0.330894	   -0.016338	   -0.000008	   -0.016345	   -0.064073	   -0.039526	   -0.103598	   -0.051051	   -0.061612	   -0.112663	   -0.028275	   -0.032295	   -0.060570	   -0.020264	   -0.033923	   -0.054187	   -0.233211	   -0.303067	   -0.536278	    0.037525	    0.050117	    0.087642	    0.180443	    0.084857	    0.265300	   -0.063619	   -0.035776	   -0.099395	   -0.038747	   -0.048747	   -0.087494	   -0.006465	   -0.000055	   -0.006521	   -0.032981	   -0.028436	   -0.061417	   -0.207110	   -0.186749	   -0.393859	   -0.200278	   -0.152582	   -0.352861	    0.181259	    0.117445	    0.298704
     9.600	0	0	    0	   -0.010198	    0.029844	    0.019646	   -0.025073	    0.004470	   -0.020603	    0.002492	    0.010768	    0.013260	   -0.040476	   -0.047750	   -0.088226	   -0.100514	   -0.145384	   -0.245898	   -0.045915	   -0.049919	   -0.095834	    0.111384	    0.213983	    0.325367	   -0.007727	   -0.003562	   -0.011289	   -0.064020	   -0.033054	   -0.097074	   -0.056262	   -0.058145	   -0.114407	   -0.028917	   -0.033297	   -0.062215	   -0.019399	   -0.032433	   -0.051832	   -0.234779	   -0.304054	   -0.538833	    0.025585	    0.056887	    0.082472	    0.183300	    0.094338	    0.277638	   -0.064706	   -0.031960	   -0.096666	   -0.040715	   -0.053181	   -0.093895	   -0.007646	   -0.004950	   -0.012596	   -0.033637	   -0.026910	   -0.060547	   -0.205390	   -0.187886	   -0.393276	   -0.206929	   -0.165885	   -0.372814	    0.197509	    0.139189	    0.336698
     9.675	0	0	    0	   -0.009453	    0.037063	    0.027610	   -0.020068	   -0.000440	   -0.020508	    0.004611	    0.008574	    0.013184	   -0.037109	   -0.043373	   -0.080482	   -0.102654	   -0.142667	   -0.245320	   -0.039979	   -0.054041	   -0.094019	    0.137156	    0.210277	    0.347433	   -0.009733	    0.009246	   -0.000487	   -0.069655	   -0.032672	   -0.102327	   -0.056525	   -0.064721	   -0.121246	   -0.025475	   -0.031459	   -0.056934	   -0.016279	   -0.031514	   -0.047793	   -0.233447	   -0.309392	   -0.542839	    0.033901	    0.046932	    0.080833	    0.200486	    0.097566	    0.298051	   -0.065230	   -0.027879	   -0.093109	   -0.044461	   -0.054970	   -0.099432	   -0.008859	   -0.005849	   -0.014708	   -0.029589	   -0.025429	   -0.055019	   -0.201817	   -0.189150	   -0.390966	   -0.203266	   -0.170310	   -0.373575	    0.231575	    0.157494	    0.389069
     9.750	0	0	    0	   -0.010257	    0.026904	    0.016647	   -0.014658	   -0.004331	   -0.018989	    0.019557	   -0.003189	    0.016368	   -0.035370	   -0.041292	   -0.076662	   -0.103482	   -0.145648	   -0.249130	   -0.026296	   -0.072405	   -0.098701	    0.197311	    0.148448	    0.345759	   -0.002720	    0.004014	    0.001293	   -0.070702	   -0.033559	   -0.104261	   -0.055274	   -0.069996	   -0.125270	   -0.021916	   -0.029244	   -0.051160	   -0.009714	   -0.028935	   -0.038649	   -0.240058	   -0.311799	   -0.551858	    0.045762	    0.047666	    0.093428	    0.201270	    0.096348	    0.297618	   -0.065574	   -0.026375	   -0.091948	   -0.048174	   -0.057667	   -0.105841	   -0.006298	   -0.007502	   -0.013800	   -0.023962	   -0.023958	   -0.047920	   -0.197867	   -0.188931	   -0.386798	   -0.193779	   -0.169962	   -0.363742	    0.235738	    0.177467	    0.413205
     9.825	0	0	    0	   -0.000307	    0.026524	    0.026217	   -0.010529	    0.001084	   -0.009445	    0.020015	    0.008608	    0.028623	   -0.037311	   -0.038402	   -0.075713	   -0.102266	   -0.145176	   -0.247442	   -0.028857	   -0.060697	   -0.089554	    0.183737	    0.177089	    0.360826	   -0.006532	    0.007722	    0.001191	   -0.061872	   -0.029284	   -0.091156	   -0.047428	   -0.070146	   -0.117574	   -0.021638	   -0.027864	   -0.049502	   -0.005835	   -0.025539	   -0.031374	   -0.233661	   -0.310366	   -0.544027	    0.054490	    0.057837	    0.112327	    0.200022	    0.101998	    0.302019	   -0.057158	   -0.019956	   -0.077114	   -0.042579	   -0.057135	   -0.099714	   -0.003969	   -0.006354	   -0.010323	   -0.020977	   -0.021054	   -0.042031	   -0.190067	   -0.183444	   -0.373511	   -0.185848	   -0.154039	   -0.339887	    0.229156	    0.209033	    0.438189
     9.900	0	0	    0	   -0.023347	    0.030600	    0.007253	   -0.010025	    0.003758	   -0.006267	    0.017001	    0.007789	    0.024790	   -0.050258	   -0.041062	   -0.091321	   -0.100367	   -0.145915	   -0.246281	   -0.029075	   -0.064351	   -0.093426	    0.176047	    0.173339	    0.349386	   -0.014105	    0.002085	   -0.012020	   -0.052008	   -0.028411	   -0.080420	   -0.046573	   -0.066030	   -0.112603	   -0.026713	   -0.028208	   -0.054920	   -0.004817	   -0.023013	   -0.027830	   -0.228258	   -0.305862	   -0.534120	    0.058419	    0.050238	    0.108657	    0.213667	    0.085680	    0.299347	   -0.050483	   -0.018208	   -0.068691	   -0.038083	   -0.058197	   -0.096281	   -0.013097	   -0.007296	   -0.020393	   -0.025195	   -0.017443	   -0.042638	   -0.185772	   -0.180639	   -0.366412	   -0.188287	   -0.152888	   -0.341176	    0.261731	    0.178472	    0.440203
