 [File Information]      		 [Data Line]	36
Measured Date	2024/05/27 094203
ID		Version	11.0
Name	oceane_1	[HeaderType]	11.0/11.0
Comment	
[Measurement Info.]
Holder Location	       0
Block Design	Off     
Pre.Rest Time	       0
Task Time	       0
Pos.Rest Time	       0
Loop	       0
Averaging	       1
Total Points	     865
[.INF File]
Filename	Cognitive1.INF
[Condition-1]
HV Switching	OFF
 R1 ,R2 ,R3 ,R4 ,R5 ,R6 ,R7 ,R8 
 120.00, 70.00,120.00,100.00, 90.00, 70.00,120.00,120.00
 Gain(X1,X4,X16,X64)
 R1 ,R2 ,R3 ,R4 ,R5 ,R6 ,R7 ,R8 
 1,1,1,1,1,1,1,1
[Analysis Condition]
Smoothed Type	None            
Smoothed Points	       0
Smoothed Loop	       0
Baseline Method	None            
Baseline location	
[Text Info.]
Output Mode	Continious      	Task No.		Data Type	Hb      
Time Range	    0.00	   64.80	Averaing	1
(1,3)(5,3)(5,7)(2,7)(2,4)(6,4)(6,8)(1,1)(3,3)(5,5)(7,7)(2,2)(4,4)(6,6)(8,8)(3,1)(3,5)(7,5)(7,2)(4,2)(4,6)(8,6)
         	     	     	     	    ch- 1	    ch- 1	    ch- 1	    ch- 2	    ch- 2	    ch- 2	    ch- 3	    ch- 3	    ch- 3	    ch- 4	    ch- 4	    ch- 4	    ch- 5	    ch- 5	    ch- 5	    ch- 6	    ch- 6	    ch- 6	    ch- 7	    ch- 7	    ch- 7	    ch- 8	    ch- 8	    ch- 8	    ch- 9	    ch- 9	    ch- 9	    ch-10	    ch-10	    ch-10	    ch-11	    ch-11	    ch-11	    ch-12	    ch-12	    ch-12	    ch-13	    ch-13	    ch-13	    ch-14	    ch-14	    ch-14	    ch-15	    ch-15	    ch-15	    ch-16	    ch-16	    ch-16	    ch-17	    ch-17	    ch-17	    ch-18	    ch-18	    ch-18	    ch-19	    ch-19	    ch-19	    ch-20	    ch-20	    ch-20	    ch-21	    ch-21	    ch-21	    ch-22	    ch-22	    ch-22
Time(sec)	Task	Mark	Count	    oxyHb   	  deoxyHb	  totalHb	    oxyHb   	  deoxyHb	  totalHb	    oxyHb   	  deoxyHb	  totalHb	    oxyHb   	  deoxyHb	  totalHb	    oxyHb   	  deoxyHb	  totalHb	    oxyHb   	  deoxyHb	  totalHb	    oxyHb   	  deoxyHb	  totalHb	    oxyHb   	  deoxyHb	  totalHb	    oxyHb   	  deoxyHb	  totalHb	    oxyHb   	  deoxyHb	  totalHb	    oxyHb   	  deoxyHb	  totalHb	    oxyHb   	  deoxyHb	  totalHb	    oxyHb   	  deoxyHb	  totalHb	    oxyHb   	  deoxyHb	  totalHb	    oxyHb   	  deoxyHb	  totalHb	    oxyHb   	  deoxyHb	  totalHb	    oxyHb   	  deoxyHb	  totalHb	    oxyHb   	  deoxyHb	  totalHb	    oxyHb   	  deoxyHb	  totalHb	    oxyHb   	  deoxyHb	  totalHb	    oxyHb   	  deoxyHb	  totalHb	    oxyHb   	  deoxyHb	  totalHb
     0.000	0	0Z	    0	    0.000000	    0.000000	    0.000000	    0.000000	    0.000000	    0.000000	    0.000000	    0.000000	    0.000000	    0.000000	    0.000000	    0.000000	    0.000000	    0.000000	    0.000000	    0.000000	    0.000000	    0.000000	    0.000000	    0.000000	    0.000000	    0.000000	    0.000000	    0.000000	    0.000000	    0.000000	    0.000000	    0.000000	    0.000000	    0.000000	    0.000000	    0.000000	    0.000000	    0.000000	    0.000000	    0.000000	    0.000000	    0.000000	    0.000000	    0.000000	    0.000000	    0.000000	    0.000000	    0.000000	    0.000000	    0.000000	    0.000000	    0.000000	    0.000000	    0.000000	    0.000000	    0.000000	    0.000000	    0.000000	    0.000000	    0.000000	    0.000000	    0.000000	    0.000000	    0.000000	    0.000000	    0.000000	    0.000000	    0.000000	    0.000000	    0.000000
     0.075	0	0	    0	    0.000584	   -0.014563	   -0.013979	   -0.027612	   -0.006511	   -0.034123	    0.020246	    0.005229	    0.025475	   -0.001853	   -0.014025	   -0.015878	   -0.051168	   -0.020398	   -0.071567	   -0.023944	    0.009475	   -0.014470	    0.020496	    0.033885	    0.054381	   -0.007055	   -0.019302	   -0.026357	   -0.034905	    0.011660	   -0.023245	   -0.036768	    0.005680	   -0.031088	   -0.014251	   -0.007360	   -0.021612	   -0.026917	   -0.029961	   -0.056878	   -0.027445	    0.011226	   -0.016219	   -0.002997	   -0.002760	   -0.005757	   -0.002588	   -0.005996	   -0.008584	   -0.013849	    0.002887	   -0.010962	   -0.000659	    0.010569	    0.009910	   -0.028484	    0.009952	   -0.018532	    0.002577	   -0.006694	   -0.004117	    0.000304	    0.001341	    0.001645	   -0.026685	    0.001709	   -0.024976	   -0.011701	    0.036714	    0.025013
     0.150	0	0	    0	    0.021315	   -0.006574	    0.014741	   -0.021198	   -0.026600	   -0.047797	    0.033455	    0.005101	    0.038556	    0.025424	   -0.001965	    0.023459	   -0.064708	   -0.096031	   -0.160739	   -0.050610	   -0.021455	   -0.072065	    0.070188	    0.069775	    0.139962	    0.020035	   -0.003443	    0.016592	   -0.106463	   -0.033757	   -0.140219	   -0.092460	   -0.177494	   -0.269954	    0.016729	   -0.017030	   -0.000301	   -0.014206	   -0.043010	   -0.057217	   -0.125134	   -0.046142	   -0.171275	    0.018730	   -0.003032	    0.015698	    0.004778	   -0.009268	   -0.004490	   -0.049326	   -0.006283	   -0.055609	   -0.123106	   -0.079936	   -0.203042	   -0.063223	   -0.225049	   -0.288272	    0.026204	   -0.018008	    0.008196	   -0.059770	   -0.020642	   -0.080412	   -0.017002	   -0.003561	   -0.020563	    0.015996	    0.062913	    0.078909
     0.225	0	0	    0	    0.019412	    0.000746	    0.020159	   -0.008147	   -0.023528	   -0.031676	    0.052987	    0.020477	    0.073464	    0.033764	    0.018853	    0.052617	   -0.059323	   -0.110531	   -0.169854	   -0.058555	   -0.076405	   -0.134959	    0.113224	    0.065908	    0.179132	    0.028724	    0.022054	    0.050778	   -0.122816	   -0.069328	   -0.192144	   -0.081043	   -0.389699	   -0.470742	    0.037935	    0.015429	    0.053364	   -0.006764	   -0.033295	   -0.040060	   -0.122410	   -0.132319	   -0.254729	    0.049849	    0.022086	    0.071935	    0.019730	   -0.017564	    0.002167	   -0.063709	    0.006809	   -0.056901	   -0.147503	   -0.359052	   -0.506555	   -0.074201	   -0.381181	   -0.455382	    0.033667	   -0.011269	    0.022398	   -0.058930	   -0.045733	   -0.104663	    0.003510	    0.023773	    0.027283	    0.044297	    0.090846	    0.135143
     0.300	0	0	    0	    0.010473	    0.003568	    0.014040	   -0.006451	   -0.020023	   -0.026474	    0.055717	    0.021861	    0.077579	    0.016232	    0.013576	    0.029809	   -0.046825	   -0.104575	   -0.151401	   -0.044977	   -0.095805	   -0.140781	    0.107357	    0.075124	    0.182481	    0.011931	    0.025189	    0.037120	   -0.112794	   -0.078754	   -0.191548	   -0.073430	   -0.445694	   -0.519124	    0.019701	    0.024171	    0.043871	    0.002804	   -0.024425	   -0.021622	   -0.115897	   -0.144046	   -0.259943	    0.048372	    0.036327	    0.084699	   -0.011409	    0.007586	   -0.003823	   -0.066714	    0.004463	   -0.062251	   -0.152973	   -0.448283	   -0.601256	   -0.090709	   -0.421347	   -0.512057	    0.017756	   -0.006111	    0.011644	   -0.064877	   -0.041573	   -0.106450	   -0.011959	    0.039709	    0.027750	   -0.025278	    0.109775	    0.084497
     0.375	0	0	    0	   -0.006704	    0.003826	   -0.002878	   -0.010397	   -0.014485	   -0.024882	    0.036452	    0.003798	    0.040250	   -0.000167	   -0.001189	   -0.001356	   -0.029398	   -0.078142	   -0.107540	   -0.039360	   -0.078296	   -0.117656	    0.100725	    0.050208	    0.150933	    0.009546	    0.012194	    0.021739	   -0.092971	   -0.062065	   -0.155036	   -0.067183	   -0.439164	   -0.506347	   -0.004323	    0.003580	   -0.000744	    0.008650	   -0.013272	   -0.004622	   -0.079466	   -0.128776	   -0.208242	    0.026645	    0.039821	    0.066466	   -0.067885	    0.007341	   -0.060544	   -0.057292	   -0.001169	   -0.058461	   -0.142598	   -0.449347	   -0.591946	   -0.109213	   -0.441584	   -0.550797	   -0.005327	   -0.010944	   -0.016271	   -0.060104	   -0.037315	   -0.097419	   -0.003601	    0.030916	    0.027315	   -0.059236	    0.040323	   -0.018913
     0.450	0	0	    0	   -0.013532	   -0.000240	   -0.013772	   -0.010003	   -0.010321	   -0.020324	    0.011708	   -0.000718	    0.010990	    0.002394	   -0.008577	   -0.006184	   -0.003200	   -0.051386	   -0.054586	   -0.025524	   -0.051763	   -0.077287	    0.036539	    0.054205	    0.090744	    0.016297	    0.001696	    0.017994	   -0.060512	   -0.047857	   -0.108369	    0.008739	   -0.422652	   -0.413913	    0.000323	   -0.009178	   -0.008855	    0.014023	    0.002140	    0.016163	   -0.033168	   -0.077987	   -0.111155	    0.025395	    0.017876	    0.043271	   -0.022378	   -0.056067	   -0.078445	   -0.034221	    0.007067	   -0.027155	   -0.102607	   -0.435463	   -0.538070	    0.040683	   -0.440007	   -0.399323	   -0.005233	   -0.003159	   -0.008392	   -0.049798	   -0.012130	   -0.061929	   -0.001648	    0.028906	    0.027258	   -0.085272	   -0.011376	   -0.096648
     0.525	0	0	    0	   -0.002993	   -0.005541	   -0.008534	   -0.006568	   -0.000283	   -0.006851	    0.004038	    0.001664	    0.005702	    0.001216	   -0.004463	   -0.003246	    0.008664	   -0.017405	   -0.008741	   -0.022972	   -0.008184	   -0.031156	    0.002743	    0.041405	    0.044147	    0.011228	    0.001075	    0.012303	   -0.049076	   -0.012325	   -0.061400	    0.016103	   -0.053758	   -0.037655	    0.002044	   -0.000892	    0.001151	    0.011468	    0.005207	    0.016676	   -0.022646	   -0.025958	   -0.048604	    0.019150	    0.009992	    0.029142	   -0.042545	   -0.035615	   -0.078160	   -0.033145	    0.032322	   -0.000823	   -0.020027	   -0.113002	   -0.133029	    0.007488	   -0.032502	   -0.025014	   -0.005836	    0.002413	   -0.003423	   -0.035301	   -0.005172	   -0.040473	   -0.010650	    0.022260	    0.011610	   -0.089645	   -0.035046	   -0.124691
     0.600	0	0	    0	   -0.008697	   -0.012010	   -0.020707	   -0.001477	   -0.000281	   -0.001758	    0.008336	   -0.008888	   -0.000552	   -0.000505	   -0.001838	   -0.002343	   -0.004715	    0.011562	    0.006847	    0.007197	   -0.017564	   -0.010367	    0.035835	   -0.029572	    0.006263	    0.000875	    0.004198	    0.005072	   -0.023030	   -0.010921	   -0.033951	    0.002547	   -0.018883	   -0.016336	   -0.001001	    0.003539	    0.002538	   -0.008590	    0.009324	    0.000734	   -0.011057	   -0.010792	   -0.021850	    0.015183	   -0.000185	    0.014999	   -0.047449	   -0.039428	   -0.086877	   -0.015037	    0.016538	    0.001501	   -0.036973	   -0.009464	   -0.046437	   -0.008453	    0.000010	   -0.008443	   -0.004711	    0.004817	    0.000106	   -0.025699	   -0.000988	   -0.026687	   -0.007789	    0.005337	   -0.002451	   -0.078516	   -0.037923	   -0.116439
     0.675	0	0	    0	    0.011529	   -0.017761	   -0.006232	   -0.024034	    0.003467	   -0.020567	    0.024060	    0.003612	    0.027673	    0.007223	   -0.015763	   -0.008540	   -0.094951	   -0.057534	   -0.152484	   -0.036427	    0.000453	   -0.035974	    0.058121	    0.031177	    0.089298	    0.007761	   -0.010143	   -0.002383	   -0.052915	    0.002098	   -0.050817	   -0.042443	    0.009676	   -0.032766	   -0.008593	   -0.003560	   -0.012153	   -0.021733	   -0.027300	   -0.049033	   -0.082071	    0.009492	   -0.072579	    0.004853	   -0.000343	    0.004510	   -0.035339	   -0.031208	   -0.066547	   -0.042915	    0.013027	   -0.029888	   -0.032704	   -0.015498	   -0.048203	   -0.020966	   -0.000468	   -0.021434	   -0.007010	   -0.007906	   -0.014916	   -0.074062	    0.005183	   -0.068879	   -0.030199	   -0.012816	   -0.043015	   -0.045614	   -0.007763	   -0.053377
     0.750	0	0	    0	    0.019754	   -0.023745	   -0.003992	   -0.017386	   -0.015841	   -0.033227	    0.037495	    0.014386	    0.051881	    0.029020	    0.001234	    0.030254	   -0.087017	   -0.128796	   -0.215812	   -0.065198	   -0.078792	   -0.143991	    0.067820	    0.070724	    0.138544	    0.021682	    0.000802	    0.022483	   -0.110046	   -0.038139	   -0.148185	   -0.072207	   -0.160199	   -0.232406	    0.019405	   -0.005539	    0.013866	   -0.012714	   -0.037238	   -0.049952	   -0.148951	   -0.135912	   -0.284864	    0.038439	    0.028646	    0.067085	   -0.035495	    0.008122	   -0.027373	   -0.065745	   -0.007040	   -0.072785	   -0.111259	   -0.100129	   -0.211388	   -0.047969	   -0.171865	   -0.219833	    0.015399	   -0.018549	   -0.003150	   -0.090471	   -0.041726	   -0.132197	   -0.007891	   -0.012598	   -0.020488	   -0.002465	    0.023831	    0.021366
     0.825	0	0	    0	    0.013853	   -0.010420	    0.003433	   -0.010899	   -0.004877	   -0.015776	    0.044679	    0.035624	    0.080303	    0.030070	    0.018855	    0.048925	   -0.077593	   -0.138819	   -0.216412	   -0.081071	   -0.087434	   -0.168504	    0.023976	    0.141101	    0.165077	    0.010463	    0.004376	    0.014839	   -0.113440	   -0.053773	   -0.167213	   -0.073919	   -0.305893	   -0.379811	    0.029777	    0.016152	    0.045929	   -0.001082	   -0.032372	   -0.033454	   -0.152012	   -0.175044	   -0.327057	    0.049141	    0.062024	    0.111165	   -0.048966	   -0.011914	   -0.060880	   -0.069824	    0.002738	   -0.067086	   -0.125369	   -0.298440	   -0.423808	   -0.039842	   -0.321140	   -0.360981	    0.028307	   -0.011374	    0.016932	   -0.072663	   -0.048663	   -0.121326	    0.012242	    0.027175	    0.039417	   -0.006921	    0.036416	    0.029495
     0.900	0	0	    0	    0.014518	   -0.033394	   -0.018875	   -0.003428	   -0.008175	   -0.011602	    0.046880	    0.028503	    0.075382	    0.014199	    0.006979	    0.021179	   -0.043783	   -0.132410	   -0.176193	   -0.053999	   -0.117999	   -0.171998	    0.068305	    0.098785	    0.167090	    0.011063	   -0.018480	   -0.007417	   -0.097861	   -0.057862	   -0.155723	   -0.038998	   -0.363362	   -0.402360	    0.018494	    0.014814	    0.033309	    0.015274	   -0.024775	   -0.009500	   -0.141032	   -0.179057	   -0.320089	    0.059916	    0.064620	    0.124536	   -0.049393	   -0.026044	   -0.075436	   -0.061768	    0.003476	   -0.058292	   -0.105803	   -0.372319	   -0.478121	   -0.048899	   -0.350916	   -0.399815	    0.019943	   -0.006577	    0.013367	   -0.065195	   -0.039411	   -0.104606	    0.019145	    0.032648	    0.051793	   -0.025009	    0.040129	    0.015120
     0.975	0	0	    0	    0.010210	   -0.025672	   -0.015463	    0.006000	   -0.005764	    0.000236	    0.029779	    0.014118	    0.043896	    0.000208	   -0.013143	   -0.012934	   -0.000093	   -0.077989	   -0.078082	   -0.024803	   -0.096379	   -0.121182	    0.073567	    0.063565	    0.137131	    0.013835	   -0.013719	    0.000115	   -0.060828	   -0.046713	   -0.107541	   -0.024300	   -0.360067	   -0.384367	    0.000189	   -0.003738	   -0.003549	    0.030386	   -0.002758	    0.027629	   -0.076368	   -0.160850	   -0.237218	    0.044685	    0.042299	    0.086984	   -0.028876	   -0.053112	   -0.081988	   -0.030522	    0.006964	   -0.023558	   -0.091998	   -0.372226	   -0.464223	   -0.057466	   -0.369529	   -0.426995	    0.000504	   -0.009445	   -0.008941	   -0.045882	   -0.036273	   -0.082155	    0.022172	    0.033218	    0.055389	   -0.030431	    0.012975	   -0.017456
     1.050	0	0	    0	    0.016827	   -0.025964	   -0.009137	    0.004844	   -0.001541	    0.003303	    0.027890	   -0.000365	    0.027525	   -0.000242	   -0.019632	   -0.019874	    0.009081	   -0.033385	   -0.024304	   -0.012110	   -0.050478	   -0.062588	    0.067319	    0.010551	    0.077870	    0.024141	   -0.009422	    0.014720	   -0.043807	   -0.028969	   -0.072775	    0.050992	   -0.301297	   -0.250304	   -0.002146	   -0.006446	   -0.008592	    0.027899	    0.011682	    0.039581	   -0.018972	   -0.073642	   -0.092613	    0.035895	    0.026491	    0.062386	   -0.037410	   -0.015521	   -0.052931	   -0.011246	    0.026270	    0.015024	   -0.032017	   -0.341642	   -0.373658	    0.054422	   -0.280143	   -0.225721	   -0.001209	   -0.000206	   -0.001415	   -0.024010	   -0.005453	   -0.029463	    0.012474	    0.025249	    0.037722	   -0.013407	    0.021737	    0.008330
     1.125	0	0	    0	    0.016413	   -0.007659	    0.008754	    0.006476	    0.006396	    0.012872	    0.014926	    0.002172	    0.017097	   -0.001547	   -0.014549	   -0.016096	    0.012773	    0.002383	    0.015157	   -0.002324	   -0.024691	   -0.027015	    0.036702	    0.033526	    0.070227	    0.022002	    0.000779	    0.022781	   -0.046435	   -0.002889	   -0.049323	    0.001010	   -0.077691	   -0.076681	   -0.003370	   -0.006302	   -0.009672	    0.024592	    0.014554	    0.039146	   -0.011411	   -0.015368	   -0.026779	    0.016128	    0.034293	    0.050421	   -0.024507	    0.025015	    0.000508	   -0.014879	    0.045686	    0.030806	   -0.053276	   -0.094293	   -0.147569	   -0.013939	   -0.074316	   -0.088255	   -0.001433	    0.002785	    0.001352	   -0.015556	    0.009968	   -0.005588	   -0.000735	    0.023246	    0.022511	    0.003458	    0.048602	    0.052060
     1.200	0	0	    0	    0.013618	    0.000748	    0.014366	    0.002883	    0.006731	    0.009613	    0.012614	    0.000448	    0.013062	   -0.003757	   -0.013416	   -0.017173	    0.006651	    0.009125	    0.015775	   -0.003877	   -0.007074	   -0.010951	    0.030618	    0.017350	    0.047968	    0.021467	    0.005041	    0.026507	   -0.035101	   -0.001188	   -0.036289	   -0.003896	   -0.065969	   -0.069865	   -0.006094	   -0.006600	   -0.012695	    0.017276	    0.009032	    0.026307	   -0.018316	    0.003103	   -0.015213	    0.021578	    0.026666	    0.048244	    0.024999	   -0.001008	    0.023991	   -0.004178	    0.043906	    0.039727	   -0.054640	   -0.067823	   -0.122463	   -0.018276	   -0.074806	   -0.093082	   -0.002486	    0.001931	   -0.000555	   -0.009631	    0.014032	    0.004401	   -0.004977	    0.002826	   -0.002151	    0.018791	    0.059656	    0.078447
     1.275	0	0	    0	    0.019814	   -0.007088	    0.012725	   -0.000877	    0.004281	    0.003404	    0.014637	    0.000235	    0.014871	   -0.010474	   -0.013423	   -0.023898	   -0.029559	    0.011333	   -0.018226	   -0.017077	   -0.005337	   -0.022414	    0.026195	    0.037369	    0.063564	    0.018898	    0.003929	    0.022827	   -0.035951	   -0.002008	   -0.037959	   -0.020911	   -0.066271	   -0.087183	   -0.007463	   -0.007201	   -0.014664	   -0.000854	   -0.002170	   -0.003024	   -0.034829	    0.004014	   -0.030815	    0.023469	    0.011499	    0.034968	    0.024598	   -0.008670	    0.015928	   -0.009638	    0.038757	    0.029119	   -0.047650	   -0.078382	   -0.126032	   -0.000756	   -0.081894	   -0.082650	   -0.008876	   -0.003354	   -0.012230	   -0.011329	    0.012717	    0.001388	   -0.014822	   -0.000209	   -0.015031	    0.035738	    0.068595	    0.104332
     1.350	0	0	    0	   -0.000119	   -0.002161	   -0.002280	   -0.021049	   -0.009905	   -0.030954	    0.016328	    0.015609	    0.031937	   -0.003037	   -0.026920	   -0.029957	   -0.040825	   -0.054970	   -0.095796	   -0.051343	   -0.021515	   -0.072858	    0.064594	    0.047307	    0.111901	    0.009293	   -0.004161	    0.005132	   -0.090542	   -0.005152	   -0.095694	   -0.044120	   -0.101297	   -0.145417	   -0.004925	   -0.018305	   -0.023230	   -0.003107	   -0.023125	   -0.026232	   -0.103547	   -0.036779	   -0.140325	    0.032616	    0.001848	    0.034464	    0.009095	   -0.009451	   -0.000357	   -0.037456	    0.031315	   -0.006141	   -0.057808	   -0.076711	   -0.134518	   -0.029365	   -0.100525	   -0.129890	    0.004160	   -0.020735	   -0.016575	   -0.037596	    0.001013	   -0.036583	   -0.011082	   -0.012744	   -0.023826	   -0.002224	    0.073935	    0.071710
     1.425	0	0	    0	    0.007834	   -0.008669	   -0.000836	   -0.011306	   -0.013577	   -0.024883	    0.043335	    0.011664	    0.054999	    0.016358	   -0.007626	    0.008732	   -0.042790	   -0.090330	   -0.133120	   -0.055090	   -0.043139	   -0.098229	    0.071342	    0.090284	    0.161626	    0.021820	    0.005804	    0.027624	   -0.129645	   -0.052212	   -0.181857	   -0.083406	   -0.260675	   -0.344081	    0.024064	   -0.006057	    0.018006	    0.004619	   -0.024324	   -0.019705	   -0.123671	   -0.104537	   -0.228208	    0.044240	    0.030215	    0.074456	   -0.041506	    0.026508	   -0.014997	   -0.062769	    0.015513	   -0.047256	   -0.124665	   -0.199662	   -0.324327	   -0.058838	   -0.284670	   -0.343508	    0.019401	   -0.014527	    0.004874	   -0.057587	   -0.016897	   -0.074485	   -0.006974	    0.014348	    0.007374	   -0.000306	    0.066931	    0.066625
     1.500	0	0	    0	    0.012085	   -0.008153	    0.003932	   -0.005339	   -0.009338	   -0.014676	    0.049298	    0.028986	    0.078284	    0.013318	    0.002764	    0.016082	   -0.043700	   -0.090956	   -0.134656	   -0.053464	   -0.083588	   -0.137052	    0.066721	    0.113831	    0.180552	    0.017385	    0.015023	    0.032408	   -0.123688	   -0.089137	   -0.212825	   -0.061267	   -0.389925	   -0.451192	    0.025297	    0.012993	    0.038289	    0.010604	   -0.016848	   -0.006243	   -0.128150	   -0.143054	   -0.271204	    0.041846	    0.052669	    0.094515	   -0.051867	    0.035295	   -0.016572	   -0.057411	   -0.002827	   -0.060238	   -0.131853	   -0.382676	   -0.514529	   -0.061643	   -0.375886	   -0.437528	    0.018999	   -0.010200	    0.008799	   -0.067108	   -0.025270	   -0.092378	   -0.018785	    0.027788	    0.009003	    0.008885	    0.062488	    0.071373
     1.575	0	0	    0	    0.012989	   -0.025735	   -0.012746	   -0.011365	   -0.007173	   -0.018538	    0.034053	    0.022805	    0.056858	   -0.003253	   -0.011638	   -0.014891	   -0.025935	   -0.091451	   -0.117386	   -0.063330	   -0.085908	   -0.149238	    0.068411	    0.080814	    0.149225	    0.002052	    0.000062	    0.002114	   -0.103972	   -0.088378	   -0.192350	   -0.061112	   -0.398079	   -0.459191	    0.002418	    0.005614	    0.008033	    0.016506	   -0.009149	    0.007357	   -0.118868	   -0.143219	   -0.262087	    0.019921	    0.051638	    0.071560	   -0.048100	   -0.023700	   -0.071800	   -0.053665	   -0.007461	   -0.061126	   -0.124932	   -0.422232	   -0.547164	   -0.086913	   -0.391636	   -0.478549	   -0.002343	   -0.006852	   -0.009195	   -0.071976	   -0.025536	   -0.097512	   -0.026300	    0.027078	    0.000778	   -0.043973	    0.041668	   -0.002305
     1.650	0	0	    0	   -0.007336	   -0.011483	   -0.018818	   -0.015841	   -0.004045	   -0.019886	    0.004685	    0.009959	    0.014644	   -0.009628	   -0.018603	   -0.028230	   -0.016819	   -0.048744	   -0.065563	   -0.048106	   -0.068281	   -0.116386	    0.012872	    0.061920	    0.074792	    0.007979	   -0.000594	    0.007385	   -0.082013	   -0.064069	   -0.146083	   -0.059757	   -0.385955	   -0.445712	   -0.009198	   -0.009815	   -0.019013	    0.016234	    0.006241	    0.022475	   -0.065023	   -0.112610	   -0.177633	    0.024105	    0.021658	    0.045763	   -0.034940	   -0.044722	   -0.079662	   -0.031818	   -0.003101	   -0.034919	   -0.126766	   -0.414318	   -0.541084	   -0.086798	   -0.410556	   -0.497354	   -0.013713	   -0.005730	   -0.019443	   -0.051123	   -0.013840	   -0.064963	   -0.025383	    0.023474	   -0.001909	   -0.054374	    0.021693	   -0.032682
     1.725	0	0	    0	    0.018489	   -0.026854	   -0.008365	   -0.012263	   -0.000452	   -0.012715	   -0.004451	    0.006311	    0.001861	   -0.001538	   -0.016068	   -0.017606	    0.002214	   -0.026115	   -0.023901	   -0.018648	   -0.046950	   -0.065597	   -0.004024	    0.047423	    0.043400	    0.023875	   -0.003958	    0.019917	   -0.055421	   -0.045733	   -0.101153	   -0.025792	   -0.362273	   -0.388065	   -0.006666	   -0.008256	   -0.014922	    0.016727	    0.008043	    0.024770	   -0.035325	   -0.048195	   -0.083521	    0.016425	    0.011085	    0.027510	   -0.024687	   -0.041203	   -0.065890	   -0.021546	    0.009664	   -0.011882	   -0.093859	   -0.404096	   -0.497955	   -0.058120	   -0.372081	   -0.430201	   -0.010341	   -0.001303	   -0.011643	   -0.044689	    0.009233	   -0.035456	   -0.010413	    0.018561	    0.008148	   -0.036605	    0.003369	   -0.033235
     1.800	0	0	    0	    0.035845	   -0.020060	    0.015785	    0.003678	    0.001651	    0.005329	    0.017053	   -0.010002	    0.007051	    0.006911	   -0.011357	   -0.004446	    0.010006	   -0.017278	   -0.007272	    0.002556	   -0.029721	   -0.027165	    0.046100	    0.002212	    0.048312	    0.041085	   -0.003160	    0.037925	   -0.046318	   -0.022576	   -0.068894	   -0.000577	   -0.304478	   -0.305055	    0.000677	   -0.005833	   -0.005156	    0.022317	    0.009607	    0.031924	   -0.019288	   -0.022834	   -0.042122	    0.022202	    0.001485	    0.023686	   -0.009972	   -0.020584	   -0.030556	   -0.004522	    0.028267	    0.023745	   -0.066214	   -0.330837	   -0.397051	   -0.038461	   -0.313625	   -0.352086	   -0.004401	    0.002612	   -0.001790	   -0.011857	    0.010568	   -0.001289	    0.001904	    0.009940	    0.011844	   -0.009548	    0.012731	    0.003182
     1.875	0	0	    0	    0.028776	   -0.011096	    0.017679	    0.006505	    0.001603	    0.008108	    0.016451	   -0.005073	    0.011378	    0.006477	   -0.005546	    0.000930	    0.004104	   -0.009866	   -0.005762	   -0.004259	   -0.012906	   -0.017165	    0.029405	    0.013864	    0.043268	    0.038324	    0.013252	    0.051576	   -0.040917	   -0.010199	   -0.051116	   -0.004690	   -0.267950	   -0.272640	    0.002325	   -0.002031	    0.000294	    0.012400	    0.012233	    0.024633	   -0.003485	   -0.018207	   -0.021692	    0.023630	    0.023371	    0.047001	    0.031589	    0.005483	    0.037072	   -0.004244	    0.039371	    0.035127	   -0.062681	   -0.277512	   -0.340193	   -0.036175	   -0.285942	   -0.322118	   -0.000959	    0.003967	    0.003008	   -0.003375	    0.015754	    0.012379	    0.002336	    0.003673	    0.006009	    0.014463	    0.052830	    0.067293
     1.950	0	0	    0	    0.015751	    0.004117	    0.019868	   -0.002352	    0.002289	   -0.000063	    0.028498	    0.014903	    0.043401	    0.009214	   -0.013644	   -0.004431	   -0.064410	   -0.059456	   -0.123866	   -0.045358	    0.008592	   -0.036767	    0.065191	    0.041131	    0.106322	    0.030078	    0.005032	    0.035110	   -0.052484	   -0.000270	   -0.052755	   -0.018134	   -0.246066	   -0.264200	   -0.001309	   -0.004258	   -0.005567	   -0.000438	   -0.016189	   -0.016627	   -0.054115	   -0.003080	   -0.057195	    0.012503	    0.017579	    0.030082	    0.025895	   -0.001956	    0.023938	   -0.021317	    0.040991	    0.019674	   -0.059850	   -0.252683	   -0.312534	   -0.021002	   -0.271426	   -0.292428	   -0.000930	   -0.008281	   -0.009211	   -0.019157	    0.024199	    0.005042	   -0.012076	   -0.004330	   -0.016406	    0.043804	    0.052390	    0.096193
     2.025	0	0	    0	    0.015991	   -0.013115	    0.002877	   -0.000354	   -0.005658	   -0.006012	    0.048067	    0.013874	    0.061941	    0.028625	   -0.005027	    0.023598	   -0.077089	   -0.119109	   -0.196198	   -0.060271	   -0.070829	   -0.131100	    0.088319	    0.084748	    0.173067	    0.033806	    0.002768	    0.036575	   -0.096814	   -0.031324	   -0.128139	   -0.044771	   -0.301871	   -0.346642	    0.021076	   -0.009641	    0.011435	    0.008895	   -0.022141	   -0.013246	   -0.128878	   -0.111417	   -0.240295	    0.041732	    0.020781	    0.062513	    0.025757	   -0.004998	    0.020759	   -0.040138	    0.022277	   -0.017861	   -0.088801	   -0.276209	   -0.365010	   -0.038593	   -0.305550	   -0.344143	    0.019579	   -0.016199	    0.003380	   -0.047845	   -0.011716	   -0.059561	    0.005399	   -0.000177	    0.005222	    0.019327	    0.095032	    0.114359
     2.100	0	0	    0	    0.020367	   -0.007826	    0.012541	    0.014260	   -0.002139	    0.012121	    0.058266	    0.024481	    0.082747	    0.043531	    0.012129	    0.055659	   -0.075671	   -0.131117	   -0.206788	   -0.061638	   -0.119893	   -0.181531	    0.119462	    0.065323	    0.184784	    0.036437	    0.012274	    0.048711	   -0.099828	   -0.059664	   -0.159492	   -0.049651	   -0.346634	   -0.396285	    0.037973	    0.011757	    0.049730	    0.017785	   -0.014086	    0.003699	   -0.135954	   -0.167683	   -0.303636	    0.062408	    0.031868	    0.094276	   -0.006004	    0.032033	    0.026029	   -0.039144	    0.019964	   -0.019179	   -0.107526	   -0.345428	   -0.452953	   -0.044822	   -0.342277	   -0.387099	    0.026522	   -0.010130	    0.016391	   -0.060449	   -0.023239	   -0.083688	    0.012086	    0.034348	    0.046434	    0.017179	    0.081910	    0.099089
     2.175	0	0	    0	    0.013921	   -0.002090	    0.011831	    0.018692	    0.005837	    0.024529	    0.064413	    0.029276	    0.093688	    0.040701	    0.022219	    0.062920	   -0.077632	   -0.134500	   -0.212132	   -0.065523	   -0.117473	   -0.182996	    0.100051	    0.106101	    0.206151	    0.016872	    0.018100	    0.034971	   -0.087766	   -0.067059	   -0.154825	   -0.046451	   -0.362379	   -0.408830	    0.041237	    0.019260	    0.060497	    0.016008	   -0.012254	    0.003754	   -0.129272	   -0.176823	   -0.306094	    0.064475	    0.041478	    0.105952	    0.007837	    0.017721	    0.025558	   -0.027396	    0.009710	   -0.017686	   -0.101514	   -0.385222	   -0.486735	   -0.044935	   -0.359591	   -0.404525	    0.025915	   -0.009136	    0.016779	   -0.062984	   -0.027426	   -0.090410	    0.004124	    0.040642	    0.044767	    0.031889	    0.079013	    0.110903
     2.250	0	0	    0	    0.012399	   -0.003716	    0.008683	    0.007078	    0.004320	    0.011397	    0.052864	    0.032447	    0.085311	    0.025169	    0.014652	    0.039821	   -0.042611	   -0.121156	   -0.163767	   -0.053008	   -0.128450	   -0.181458	    0.087811	    0.096804	    0.184615	    0.016361	    0.000062	    0.016423	   -0.087712	   -0.065771	   -0.153483	   -0.030173	   -0.373371	   -0.403544	    0.024759	    0.018333	    0.043092	    0.018973	   -0.014449	    0.004524	   -0.126745	   -0.181280	   -0.308024	    0.041259	    0.054478	    0.095737	   -0.039612	   -0.012644	   -0.052257	   -0.035199	    0.008228	   -0.026971	   -0.098546	   -0.388690	   -0.487235	   -0.059409	   -0.363271	   -0.422680	    0.012532	   -0.010346	    0.002186	   -0.056390	   -0.032918	   -0.089309	    0.009962	    0.032958	    0.042920	   -0.040147	    0.061143	    0.020996
     2.325	0	0	    0	    0.002243	   -0.001658	    0.000585	   -0.003296	   -0.002682	   -0.005978	    0.031906	    0.022540	    0.054445	    0.012862	   -0.001772	    0.011089	   -0.029727	   -0.079560	   -0.109287	   -0.038055	   -0.081786	   -0.119841	    0.041628	    0.098370	    0.139998	    0.012408	    0.003469	    0.015876	   -0.083841	   -0.068954	   -0.152795	   -0.040765	   -0.360177	   -0.400941	    0.008627	    0.004797	    0.013424	    0.023936	   -0.000443	    0.023493	   -0.076357	   -0.151451	   -0.227808	    0.037364	    0.030363	    0.067728	   -0.024649	   -0.041000	   -0.065649	   -0.024513	   -0.002425	   -0.026938	   -0.095677	   -0.385453	   -0.481130	   -0.076263	   -0.378713	   -0.454976	    0.001273	   -0.006617	   -0.005344	   -0.043180	   -0.023215	   -0.066395	    0.012448	    0.026483	    0.038932	   -0.073735	    0.007771	   -0.065964
     2.400	0	0	    0	   -0.002201	   -0.007697	   -0.009898	   -0.005025	   -0.000941	   -0.005966	    0.017571	    0.007437	    0.025008	    0.008622	   -0.007774	    0.000848	   -0.013992	   -0.058023	   -0.072015	   -0.022114	   -0.058651	   -0.080765	    0.038079	    0.058931	    0.097010	    0.012228	   -0.000190	    0.012038	   -0.057259	   -0.056397	   -0.113656	    0.014455	   -0.352275	   -0.337821	    0.007178	   -0.002501	    0.004676	    0.024800	    0.008871	    0.033672	   -0.041434	   -0.092856	   -0.134291	    0.036148	    0.021174	    0.057322	   -0.016905	   -0.039002	   -0.055906	   -0.009595	    0.012760	    0.003165	   -0.068088	   -0.378958	   -0.447045	   -0.009417	   -0.347303	   -0.356720	   -0.003592	    0.002352	   -0.001240	   -0.036404	    0.001569	   -0.034836	    0.011399	    0.024765	    0.036164	   -0.057495	   -0.018875	   -0.076370
     2.475	0	0	    0	    0.020494	   -0.023543	   -0.003049	   -0.003027	    0.001194	   -0.001834	    0.009148	    0.002854	    0.012002	    0.008472	   -0.008045	    0.000427	   -0.007498	   -0.038275	   -0.045773	   -0.014571	   -0.024757	   -0.039329	   -0.000609	    0.061505	    0.060896	    0.016910	   -0.001447	    0.015463	   -0.040309	   -0.020808	   -0.061118	    0.007307	   -0.099722	   -0.092415	    0.006295	   -0.001365	    0.004930	    0.019478	    0.011577	    0.031055	   -0.027240	   -0.042801	   -0.070041	    0.021960	    0.015943	    0.037903	    0.007207	   -0.054582	   -0.047375	   -0.003923	    0.037308	    0.033385	   -0.004174	   -0.174858	   -0.179032	   -0.011878	   -0.093291	   -0.105169	   -0.006508	    0.001920	   -0.004588	   -0.020882	    0.005194	   -0.015688	   -0.003499	    0.029620	    0.026121	   -0.024416	   -0.018834	   -0.043250
     2.550	0	0	    0	    0.019762	   -0.014309	    0.005453	   -0.003463	    0.002387	   -0.001076	    0.008158	   -0.000818	    0.007341	    0.002228	   -0.004511	   -0.002284	   -0.010063	   -0.032527	   -0.042591	   -0.009897	   -0.014119	   -0.024015	    0.044378	    0.027866	    0.072244	    0.022787	    0.000575	    0.023361	   -0.035187	   -0.010179	   -0.045366	    0.002028	   -0.050692	   -0.048664	    0.002256	   -0.000321	    0.001934	    0.005361	    0.013387	    0.018748	   -0.028110	   -0.020231	   -0.048341	    0.011250	    0.021486	    0.032736	    0.031716	    0.008647	    0.040362	   -0.003814	    0.028557	    0.024743	   -0.029394	   -0.053247	   -0.082641	   -0.018672	   -0.051221	   -0.069893	   -0.005207	    0.003107	   -0.002100	   -0.014416	    0.025047	    0.010631	   -0.011306	    0.015499	    0.004194	    0.005678	    0.017011	    0.022689
     2.625	0	0	    0	    0.033871	   -0.035729	   -0.001858	   -0.025515	    0.002690	   -0.022825	    0.012772	    0.012593	    0.025365	    0.006312	   -0.015524	   -0.009213	   -0.063001	   -0.065931	   -0.128932	   -0.050967	   -0.003936	   -0.054903	    0.032310	    0.082093	    0.114403	    0.010793	   -0.006818	    0.003976	   -0.064171	    0.001057	   -0.063114	   -0.044822	   -0.044144	   -0.088966	   -0.008323	   -0.005435	   -0.013759	   -0.013306	   -0.014709	   -0.028015	   -0.067465	   -0.023433	   -0.090898	    0.010014	    0.009330	    0.019344	    0.023276	    0.001701	    0.024977	   -0.030004	    0.029787	   -0.000217	   -0.040946	   -0.041049	   -0.081995	   -0.040266	   -0.044781	   -0.085047	   -0.009020	   -0.006458	   -0.015478	   -0.035354	    0.026865	   -0.008489	   -0.024199	   -0.005353	   -0.029552	    0.024213	    0.041892	    0.066105
     2.700	0	0	    0	    0.011583	   -0.001496	    0.010086	   -0.010790	   -0.012588	   -0.023378	    0.037836	    0.006542	    0.044378	    0.014042	   -0.005174	    0.008868	   -0.074961	   -0.101351	   -0.176312	   -0.053944	   -0.046273	   -0.100216	    0.065427	    0.108968	    0.174395	    0.010899	    0.000735	    0.011634	   -0.097058	   -0.045312	   -0.142370	   -0.073093	   -0.161602	   -0.234695	    0.009593	   -0.011963	   -0.002370	   -0.008148	   -0.025097	   -0.033244	   -0.144627	   -0.096271	   -0.240898	    0.019809	    0.029369	    0.049178	    0.028466	   -0.002987	    0.025479	   -0.046594	    0.000982	   -0.045612	   -0.098477	   -0.112349	   -0.210827	   -0.064594	   -0.182126	   -0.246720	    0.005069	   -0.012651	   -0.007583	   -0.081767	   -0.009718	   -0.091486	   -0.032057	    0.003794	   -0.028264	    0.028594	    0.086900	    0.115494
     2.775	0	0	    0	    0.029954	   -0.023568	    0.006385	   -0.005906	   -0.011717	   -0.017623	    0.044189	    0.010589	    0.054778	    0.019995	   -0.000984	    0.019011	   -0.074640	   -0.108217	   -0.182856	   -0.045891	   -0.085420	   -0.131311	    0.102308	    0.069981	    0.172289	    0.013143	   -0.000185	    0.012958	   -0.119680	   -0.048111	   -0.167791	   -0.048908	   -0.305871	   -0.354779	    0.013725	   -0.001516	    0.012209	   -0.006044	   -0.022434	   -0.028478	   -0.144045	   -0.134788	   -0.278833	    0.022142	    0.029859	    0.052001	    0.010261	    0.006427	    0.016688	   -0.072267	    0.018031	   -0.054236	   -0.119810	   -0.268678	   -0.388488	   -0.056920	   -0.298720	   -0.355641	    0.005055	   -0.009697	   -0.004642	   -0.087651	   -0.023902	   -0.111552	   -0.037805	    0.023019	   -0.014785	    0.014709	    0.113304	    0.128013
     2.850	0	0	    0	    0.048086	   -0.028110	    0.019976	   -0.002439	   -0.010631	   -0.013069	    0.049198	    0.009832	    0.059030	    0.029177	    0.004387	    0.033564	   -0.061825	   -0.114947	   -0.176772	   -0.048679	   -0.084512	   -0.133191	    0.088049	    0.071821	    0.159871	    0.028361	    0.001131	    0.029492	   -0.112129	   -0.052663	   -0.164792	   -0.043586	   -0.339631	   -0.383217	    0.023109	   -0.000248	    0.022861	    0.004960	   -0.021678	   -0.016718	   -0.141812	   -0.145001	   -0.286813	    0.035937	    0.025125	    0.061063	   -0.047453	    0.047336	   -0.000116	   -0.064219	    0.016319	   -0.047900	   -0.105877	   -0.321157	   -0.427033	   -0.052014	   -0.332050	   -0.384064	    0.011352	   -0.010403	    0.000949	   -0.086185	   -0.026306	   -0.112492	   -0.016811	    0.023578	    0.006767	   -0.008659	    0.063796	    0.055136
     2.925	0	0	    0	    0.012748	    0.001886	    0.014634	    0.003289	   -0.005780	   -0.002491	    0.051265	    0.021746	    0.073011	    0.022349	    0.007501	    0.029850	   -0.055064	   -0.116242	   -0.171306	   -0.048365	   -0.079807	   -0.128172	    0.098287	    0.073533	    0.171821	    0.022472	    0.006187	    0.028660	   -0.099016	   -0.055773	   -0.154789	   -0.027430	   -0.358731	   -0.386160	    0.018854	    0.005024	    0.023878	    0.011687	   -0.014091	   -0.002404	   -0.126517	   -0.145859	   -0.272376	    0.027656	    0.039509	    0.067165	   -0.025774	   -0.049609	   -0.075383	   -0.052226	    0.020554	   -0.031672	   -0.098023	   -0.345193	   -0.443216	   -0.058417	   -0.347011	   -0.405428	    0.008987	   -0.006173	    0.002815	   -0.076659	   -0.026909	   -0.103568	    0.012924	    0.033457	    0.046381	   -0.052821	    0.033896	   -0.018924
     3.000	0	0	    0	    0.040537	   -0.047730	   -0.007194	    0.003525	   -0.002030	    0.001495	    0.028855	    0.018131	    0.046986	    0.018188	   -0.006279	    0.011910	   -0.015631	   -0.091719	   -0.107350	   -0.028308	   -0.078126	   -0.106433	    0.056599	    0.061525	    0.118124	    0.020778	   -0.005940	    0.014838	   -0.067063	   -0.047956	   -0.115018	   -0.028594	   -0.351642	   -0.380236	    0.007246	   -0.002890	    0.004356	    0.022838	   -0.002926	    0.019912	   -0.088225	   -0.141890	   -0.230115	    0.040251	    0.018636	    0.058887	   -0.029111	   -0.043877	   -0.072988	   -0.035667	    0.021846	   -0.013821	   -0.089627	   -0.349126	   -0.438753	   -0.076593	   -0.363742	   -0.440335	    0.003231	   -0.001359	    0.001872	   -0.060144	   -0.017853	   -0.077997	    0.019603	    0.040836	    0.060438	   -0.070178	   -0.020394	   -0.090572
     3.075	0	0	    0	    0.006839	   -0.022579	   -0.015740	    0.010875	   -0.001026	    0.009849	    0.028052	    0.001827	    0.029879	    0.012768	   -0.003567	    0.009201	   -0.005549	   -0.051343	   -0.056891	    0.002221	   -0.054576	   -0.052354	    0.033209	    0.017848	    0.051057	    0.018798	   -0.005785	    0.013014	   -0.035079	   -0.021625	   -0.056704	    0.021293	   -0.337075	   -0.315783	    0.007064	   -0.001721	    0.005344	    0.022854	    0.010556	    0.033410	   -0.027531	   -0.080531	   -0.108062	    0.031998	    0.019305	    0.051303	   -0.034548	   -0.027934	   -0.062482	   -0.011489	    0.031334	    0.019845	   -0.059829	   -0.344756	   -0.404585	   -0.027047	   -0.328862	   -0.355909	   -0.000762	    0.007126	    0.006364	   -0.044510	   -0.003025	   -0.047535	    0.014554	    0.046388	    0.060943	   -0.081635	   -0.025994	   -0.107628
     3.150	0	0	    0	    0.001962	   -0.007163	   -0.005201	    0.014843	    0.007728	    0.022572	    0.017989	   -0.000086	    0.017902	    0.011929	    0.000524	    0.012453	    0.002681	   -0.018996	   -0.016315	    0.002912	   -0.010161	   -0.007250	    0.020428	    0.014450	    0.034878	    0.017908	    0.008335	    0.026243	   -0.011566	   -0.004163	   -0.015729	    0.046066	   -0.151891	   -0.105825	    0.014393	    0.000916	    0.015309	    0.022023	    0.014083	    0.036106	   -0.021872	   -0.033916	   -0.055789	    0.023308	    0.013835	    0.037143	   -0.005444	   -0.050831	   -0.056275	    0.005015	    0.032853	    0.037868	    0.008991	   -0.198202	   -0.189212	    0.001307	   -0.112879	   -0.111573	    0.000140	    0.008046	    0.008186	   -0.025913	    0.012585	   -0.013328	    0.010190	    0.027170	    0.037360	   -0.043954	   -0.035245	   -0.079198
     3.225	0	0	    0	    0.003162	   -0.001557	    0.001605	    0.017125	    0.012314	    0.029439	    0.014315	   -0.001254	    0.013060	    0.014179	    0.000712	    0.014891	   -0.001815	   -0.006982	   -0.008797	   -0.000818	   -0.003297	   -0.004116	    0.019989	    0.018861	    0.038849	    0.025644	    0.003357	    0.029001	   -0.000427	    0.004946	    0.004520	    0.007069	   -0.030543	   -0.023474	    0.016007	    0.005145	    0.021152	    0.020407	    0.011506	    0.031913	   -0.008933	   -0.012920	   -0.021854	    0.027103	    0.016616	    0.043719	   -0.006619	    0.022306	    0.015687	    0.006215	    0.026910	    0.033124	   -0.012463	   -0.032492	   -0.044955	   -0.012610	   -0.030219	   -0.042829	    0.003070	    0.008101	    0.011171	   -0.017609	    0.017380	   -0.000228	    0.007476	    0.018677	    0.026153	    0.003416	    0.023741	    0.027157
     3.300	0	0	    0	    0.014138	   -0.005978	    0.008160	    0.009814	    0.013720	    0.023534	    0.022621	    0.000718	    0.023339	    0.006345	   -0.002557	    0.003788	   -0.050027	    0.008160	   -0.041867	   -0.005560	   -0.009226	   -0.014786	    0.039145	    0.021067	    0.060212	    0.012585	    0.004025	    0.016610	   -0.005242	    0.017150	    0.011909	    0.002073	   -0.035012	   -0.032939	    0.007883	    0.007608	    0.015491	   -0.006302	   -0.000886	   -0.007188	   -0.013001	   -0.000346	   -0.013347	    0.017566	    0.027524	    0.045090	    0.028497	   -0.000392	    0.028105	    0.001820	    0.029730	    0.031549	   -0.029704	   -0.001304	   -0.031007	    0.000467	   -0.026627	   -0.026160	   -0.001124	    0.010045	    0.008921	   -0.014035	    0.017717	    0.003681	   -0.001006	    0.013459	    0.012453	    0.022310	    0.052079	    0.074390
     3.375	0	0	    0	    0.007590	    0.014482	    0.022071	   -0.008591	   -0.000922	   -0.009514	    0.034327	    0.012928	    0.047255	    0.017622	   -0.006502	    0.011120	   -0.070380	   -0.075895	   -0.146275	   -0.038723	   -0.013474	   -0.052197	    0.087284	    0.042016	    0.129300	    0.018798	   -0.005785	    0.013014	   -0.065752	   -0.005958	   -0.071710	   -0.055516	   -0.074223	   -0.129739	    0.008787	   -0.011080	   -0.002293	   -0.008807	   -0.028041	   -0.036848	   -0.119538	   -0.018885	   -0.138423	    0.037205	    0.009962	    0.047167	    0.027100	   -0.011072	    0.016028	   -0.029610	    0.017807	   -0.011803	   -0.056354	   -0.024543	   -0.080897	   -0.046054	   -0.077897	   -0.123951	    0.007857	   -0.007156	    0.000701	   -0.048229	    0.009870	   -0.038359	   -0.015130	   -0.002522	   -0.017651	    0.025409	    0.065952	    0.091361
     3.450	0	0	    0	    0.026545	    0.010479	    0.037024	   -0.000284	   -0.008348	   -0.008632	    0.060878	    0.008046	    0.068923	    0.042287	    0.012470	    0.054757	   -0.071904	   -0.103866	   -0.175771	   -0.039562	   -0.076473	   -0.116035	    0.139544	    0.041409	    0.180953	    0.033860	    0.013447	    0.047307	   -0.100717	   -0.039675	   -0.140392	   -0.074970	   -0.291721	   -0.366690	    0.039424	   -0.003077	    0.036346	   -0.003158	   -0.024273	   -0.027431	   -0.125500	   -0.113007	   -0.238508	    0.058951	    0.028171	    0.087121	    0.029105	   -0.007172	    0.021933	   -0.042526	    0.011355	   -0.031171	   -0.124619	   -0.229178	   -0.353796	   -0.055743	   -0.308899	   -0.364642	    0.029159	   -0.010496	    0.018662	   -0.065081	   -0.018981	   -0.084062	   -0.004538	    0.020696	    0.016158	    0.045812	    0.082712	    0.128524
     3.525	0	0	    0	    0.054636	    0.007770	    0.062405	    0.005596	   -0.003776	    0.001820	    0.073813	    0.025761	    0.099574	    0.061647	    0.031514	    0.093161	   -0.066592	   -0.112206	   -0.178798	   -0.057630	   -0.087429	   -0.145058	    0.126578	    0.075095	    0.201673	    0.049056	    0.029112	    0.078167	   -0.113674	   -0.055747	   -0.169421	   -0.074870	   -0.395686	   -0.470556	    0.060346	    0.024147	    0.084493	   -0.003210	   -0.022625	   -0.025836	   -0.144979	   -0.142173	   -0.287152	    0.070408	    0.046678	    0.117086	    0.028800	   -0.011754	    0.017047	   -0.056461	    0.019551	   -0.036910	   -0.139617	   -0.382083	   -0.521700	   -0.062715	   -0.382788	   -0.445502	    0.041208	   -0.006547	    0.034660	   -0.073016	   -0.021640	   -0.094656	   -0.019335	    0.033526	    0.014191	    0.024880	    0.114320	    0.139200
     3.600	0	0	    0	    0.036689	    0.026442	    0.063131	    0.009659	   -0.005159	    0.004500	    0.083551	    0.043898	    0.127450	    0.050581	    0.047189	    0.097769	   -0.063517	   -0.103898	   -0.167415	   -0.082898	   -0.071903	   -0.154801	    0.107133	    0.105929	    0.213063	    0.032295	    0.045916	    0.078211	   -0.119856	   -0.068887	   -0.188743	   -0.080375	   -0.439007	   -0.519382	    0.047637	    0.034314	    0.081951	    0.001347	   -0.022267	   -0.020920	   -0.154741	   -0.136968	   -0.291709	    0.057362	    0.055422	    0.112784	   -0.044419	    0.005611	   -0.038808	   -0.056201	    0.006303	   -0.049898	   -0.163901	   -0.444559	   -0.608460	   -0.086051	   -0.422056	   -0.508107	    0.028714	   -0.006978	    0.021736	   -0.070577	   -0.025267	   -0.095844	   -0.008173	    0.034145	    0.025971	   -0.035327	    0.046951	    0.011624
     3.675	0	0	    0	    0.012165	    0.000190	    0.012355	    0.008722	   -0.006615	    0.002107	    0.060104	    0.038228	    0.098332	    0.023434	    0.017859	    0.041293	   -0.021393	   -0.083319	   -0.104713	   -0.050894	   -0.082725	   -0.133620	    0.073813	    0.088764	    0.162576	    0.004815	    0.015470	    0.020285	   -0.096464	   -0.070369	   -0.166833	   -0.068137	   -0.449552	   -0.517689	    0.016199	    0.019191	    0.035390	    0.003112	   -0.012644	   -0.009532	   -0.126491	   -0.144913	   -0.271404	    0.064776	    0.030208	    0.094983	   -0.023686	   -0.052082	   -0.075768	   -0.057804	   -0.002145	   -0.059949	   -0.160363	   -0.473066	   -0.633429	   -0.117739	   -0.437284	   -0.555023	   -0.004519	   -0.002920	   -0.007438	   -0.073481	   -0.024390	   -0.097871	   -0.010457	    0.035919	    0.025462	   -0.069411	    0.003005	   -0.066407
     3.750	0	0	    0	   -0.001145	   -0.026059	   -0.027204	    0.009079	   -0.000995	    0.008084	    0.021055	    0.017682	    0.038737	    0.011048	    0.002114	    0.013162	   -0.008693	   -0.043149	   -0.051842	   -0.019909	   -0.063374	   -0.083283	    0.039455	    0.041290	    0.080744	   -0.005176	   -0.002754	   -0.007930	   -0.056733	   -0.045167	   -0.101900	   -0.055951	   -0.437723	   -0.493674	    0.003667	    0.001197	    0.004864	    0.011142	    0.000142	    0.011284	   -0.075947	   -0.096382	   -0.172329	    0.039241	    0.033828	    0.073069	   -0.039011	   -0.037047	   -0.076059	   -0.049030	    0.005097	   -0.043933	   -0.138083	   -0.463637	   -0.601720	   -0.119599	   -0.452128	   -0.571727	   -0.016911	   -0.010377	   -0.027287	   -0.075048	   -0.004679	   -0.079728	   -0.020266	    0.041826	    0.021560	   -0.088600	   -0.024101	   -0.112701
     3.825	0	0	    0	   -0.004219	   -0.003862	   -0.008081	    0.009436	    0.006213	    0.015650	    0.013726	    0.004800	    0.018525	    0.014101	    0.003875	    0.017975	   -0.011489	    0.000210	   -0.011279	   -0.006007	   -0.020132	   -0.026139	    0.001325	    0.016103	    0.017427	    0.009231	   -0.007869	    0.001362	   -0.017004	   -0.013787	   -0.030791	    0.053134	   -0.410417	   -0.357283	    0.009017	    0.004719	    0.013737	    0.017653	    0.014491	    0.032143	   -0.042361	   -0.023327	   -0.065688	    0.030351	    0.031259	    0.061610	   -0.045367	   -0.037731	   -0.083098	   -0.020720	    0.014399	   -0.006321	   -0.027304	   -0.442647	   -0.469950	    0.080880	   -0.395750	   -0.314871	   -0.011947	    0.003733	   -0.008214	   -0.069731	    0.010164	   -0.059567	    0.005586	    0.047238	    0.052824	   -0.066948	   -0.027985	   -0.094933
     3.900	0	0	    0	    0.005732	   -0.013097	   -0.007365	    0.025579	    0.005866	    0.031445	    0.029419	   -0.003414	    0.026005	    0.023236	    0.008399	    0.031635	   -0.010870	    0.004032	   -0.006838	    0.015424	   -0.029941	   -0.014517	    0.016690	   -0.031744	   -0.015054	    0.012861	   -0.007522	    0.005338	    0.006953	   -0.006074	    0.000879	    0.049623	   -0.071531	   -0.021908	    0.018073	    0.009431	    0.027504	    0.017630	    0.011138	    0.028768	   -0.035522	   -0.003834	   -0.039356	    0.039641	    0.017188	    0.056829	   -0.046871	   -0.045346	   -0.092217	   -0.001356	    0.000183	   -0.001173	    0.011421	   -0.041172	   -0.029752	   -0.006153	   -0.028843	   -0.034995	   -0.005140	    0.005717	    0.000577	   -0.029507	    0.023584	   -0.005924	    0.018315	    0.045040	    0.063355	   -0.050059	   -0.029259	   -0.079318
     3.975	0	0	    0	    0.002949	    0.004568	    0.007517	    0.007789	    0.018256	    0.026046	    0.046332	    0.006256	    0.052588	    0.016300	    0.005648	    0.021948	   -0.060548	    0.021887	   -0.038660	   -0.009653	   -0.009339	   -0.018993	    0.045004	   -0.029522	    0.015483	    0.003860	   -0.008626	   -0.004766	    0.012584	   -0.010125	    0.002460	    0.016267	   -0.024487	   -0.008220	    0.010905	    0.014105	    0.025010	   -0.009908	   -0.007223	   -0.017131	   -0.043303	    0.001593	   -0.041710	    0.027459	    0.010463	    0.037922	   -0.024979	   -0.062615	   -0.087595	    0.007656	   -0.016214	   -0.008558	    0.011576	   -0.012260	   -0.000684	   -0.010453	    0.000334	   -0.010119	   -0.006237	    0.002142	   -0.004095	   -0.019428	    0.015680	   -0.003748	    0.003888	    0.036745	    0.040633	   -0.016106	   -0.000952	   -0.017058
     4.050	0	0	    0	    0.019401	    0.028646	    0.048047	    0.006614	   -0.008448	   -0.001834	    0.070786	    0.010167	    0.080952	    0.044147	    0.014493	    0.058640	   -0.096947	   -0.095341	   -0.192287	   -0.042938	   -0.020621	   -0.063559	    0.108689	    0.035570	    0.144258	    0.022022	   -0.001208	    0.020814	   -0.056425	   -0.036152	   -0.092576	   -0.030289	   -0.095440	   -0.125729	    0.021704	   -0.003113	    0.018591	   -0.011310	   -0.027409	   -0.038719	   -0.122877	   -0.017225	   -0.140102	    0.065186	    0.030889	    0.096075	    0.027145	   -0.009691	    0.017453	   -0.007439	   -0.022171	   -0.029610	   -0.046375	   -0.024629	   -0.071004	   -0.045657	   -0.076955	   -0.122611	    0.011100	   -0.012649	   -0.001550	   -0.067889	    0.014257	   -0.053632	   -0.002974	    0.019497	    0.016523	    0.022422	    0.047831	    0.070252
     4.125	0	0	    0	    0.035051	    0.024583	    0.059634	    0.012105	   -0.010798	    0.001307	    0.087282	    0.021601	    0.108882	    0.061147	    0.034785	    0.095932	   -0.106083	   -0.137781	   -0.243864	   -0.059524	   -0.089827	   -0.149351	    0.158758	    0.032336	    0.191094	    0.038546	    0.007127	    0.045673	   -0.084974	   -0.045139	   -0.130113	   -0.062003	   -0.278688	   -0.340691	    0.046487	    0.011997	    0.058484	   -0.007158	   -0.027988	   -0.035146	   -0.152215	   -0.114944	   -0.267159	    0.093722	    0.046301	    0.140022	    0.039634	   -0.012920	    0.026715	   -0.018274	    0.005561	   -0.012713	   -0.111422	   -0.230957	   -0.342378	   -0.055583	   -0.286398	   -0.341981	    0.036546	   -0.012219	    0.024327	   -0.071257	   -0.033437	   -0.104694	    0.014368	    0.032734	    0.047102	    0.058105	    0.054954	    0.113059
     4.200	0	0	    0	    0.039500	    0.039335	    0.078836	    0.013357	   -0.007848	    0.005508	    0.089588	    0.037766	    0.127354	    0.063086	    0.044672	    0.107758	   -0.099151	   -0.143384	   -0.242535	   -0.074912	   -0.111864	   -0.186776	    0.134173	    0.091503	    0.225676	    0.040040	    0.016599	    0.056639	   -0.098706	   -0.048866	   -0.147572	   -0.066391	   -0.396326	   -0.462717	    0.057650	    0.028646	    0.086296	   -0.001893	   -0.027147	   -0.029039	   -0.171911	   -0.164160	   -0.336071	    0.104205	    0.060164	    0.164369	    0.023415	    0.004197	    0.027612	   -0.039151	    0.019282	   -0.019869	   -0.133700	   -0.382262	   -0.515962	   -0.055681	   -0.384069	   -0.439750	    0.045933	   -0.009702	    0.036232	   -0.069681	   -0.033134	   -0.102815	    0.005146	    0.041981	    0.047127	    0.051986	    0.105475	    0.157461
     4.275	0	0	    0	    0.048113	    0.002695	    0.050807	    0.012079	   -0.008201	    0.003878	    0.085677	    0.048518	    0.134195	    0.057925	    0.041725	    0.099650	   -0.081738	   -0.139024	   -0.220762	   -0.072782	   -0.113724	   -0.186507	    0.150179	    0.066144	    0.216323	    0.043222	    0.009180	    0.052403	   -0.105534	   -0.056510	   -0.162044	   -0.067697	   -0.440972	   -0.508669	    0.060039	    0.034932	    0.094971	    0.006174	   -0.024118	   -0.017944	   -0.160194	   -0.173235	   -0.333429	    0.095761	    0.058903	    0.154664	    0.009502	    0.013010	    0.022511	   -0.048670	    0.013760	   -0.034911	   -0.148368	   -0.444316	   -0.592685	   -0.067584	   -0.417438	   -0.485022	    0.045577	   -0.005960	    0.039617	   -0.059719	   -0.038699	   -0.098418	    0.008094	    0.039029	    0.047123	    0.020991	    0.109354	    0.130345
     4.350	0	0	    0	    0.005485	    0.020922	    0.026407	    0.008367	   -0.011526	   -0.003158	    0.081160	    0.036703	    0.117863	    0.025560	    0.025763	    0.051323	   -0.048637	   -0.112201	   -0.160838	   -0.055974	   -0.103829	   -0.159803	    0.083001	    0.110164	    0.193165	    0.005944	    0.007446	    0.013389	   -0.097901	   -0.064135	   -0.162036	   -0.063142	   -0.449438	   -0.512580	    0.039364	    0.028738	    0.068103	    0.007830	   -0.011353	   -0.003523	   -0.133311	   -0.168960	   -0.302271	    0.073454	    0.061154	    0.134608	   -0.049910	    0.041263	   -0.008648	   -0.055167	    0.004564	   -0.050603	   -0.149464	   -0.473119	   -0.622583	   -0.088849	   -0.433055	   -0.521904	    0.021590	   -0.002761	    0.018829	   -0.061024	   -0.033618	   -0.094642	    0.002762	    0.038875	    0.041637	    0.007436	    0.068307	    0.075744
     4.425	0	0	    0	    0.001660	   -0.018290	   -0.016630	    0.005382	   -0.006956	   -0.001574	    0.036576	    0.023379	    0.059955	    0.015467	    0.003609	    0.019076	   -0.022206	   -0.059303	   -0.081509	   -0.047355	   -0.073581	   -0.120936	    0.040088	    0.065861	    0.105949	   -0.000148	   -0.015364	   -0.015513	   -0.066857	   -0.049538	   -0.116395	   -0.058920	   -0.444264	   -0.503183	    0.017088	    0.006153	    0.023241	    0.011270	   -0.005846	    0.005424	   -0.075577	   -0.125313	   -0.200890	    0.029492	    0.061188	    0.090680	   -0.057177	    0.015828	   -0.041349	   -0.047339	    0.004766	   -0.042573	   -0.142460	   -0.464025	   -0.606485	   -0.111176	   -0.452691	   -0.563867	   -0.009624	   -0.009974	   -0.019598	   -0.052958	   -0.019575	   -0.072534	   -0.002585	    0.039430	    0.036846	   -0.016103	    0.040235	    0.024133
     4.500	0	0	    0	    0.012028	   -0.031431	   -0.019403	    0.010106	   -0.004662	    0.005444	    0.017939	    0.017565	    0.035505	    0.015072	    0.001199	    0.016271	   -0.017345	   -0.028857	   -0.046202	   -0.033355	   -0.037203	   -0.070558	   -0.004540	    0.045976	    0.041436	    0.004378	   -0.014838	   -0.010460	   -0.028594	   -0.020804	   -0.049398	   -0.008230	   -0.429865	   -0.438094	    0.013754	    0.003828	    0.017582	    0.013537	    0.010252	    0.023788	   -0.045238	   -0.048929	   -0.094166	    0.021432	    0.040730	    0.062162	   -0.044638	   -0.015364	   -0.060002	   -0.022515	    0.019405	   -0.003110	   -0.084987	   -0.458890	   -0.543877	   -0.046439	   -0.436120	   -0.482560	   -0.010083	   -0.000405	   -0.010488	   -0.061832	    0.002009	   -0.059823	    0.003845	    0.042679	    0.046524	   -0.012505	    0.028621	    0.016116
     4.575	0	0	    0	   -0.005799	    0.003818	   -0.001981	    0.013975	    0.002315	    0.016290	    0.018238	    0.006555	    0.024793	    0.016729	    0.006898	    0.023627	   -0.012067	    0.002794	   -0.009273	   -0.016511	   -0.022313	   -0.038824	   -0.001533	    0.001730	    0.000197	   -0.001126	   -0.006047	   -0.007174	   -0.020572	    0.001987	   -0.018586	    0.020292	   -0.039544	   -0.019252	    0.021136	    0.009210	    0.030346	    0.007156	    0.006483	    0.013639	   -0.047795	   -0.028974	   -0.076769	    0.018385	    0.039693	    0.058077	   -0.059691	   -0.004722	   -0.064413	   -0.026279	    0.017278	   -0.009001	    0.007997	   -0.067744	   -0.059748	    0.007315	   -0.015537	   -0.008222	   -0.009730	    0.003506	   -0.006223	   -0.033025	    0.018373	   -0.014652	   -0.007683	    0.031467	    0.023785	   -0.016657	    0.035047	    0.018391
     4.650	0	0	    0	    0.010379	   -0.005921	    0.004458	    0.014273	    0.009516	    0.023789	    0.017871	    0.005828	    0.023700	    0.019015	    0.008749	    0.027764	   -0.002191	    0.004143	    0.001952	   -0.022047	    0.001945	   -0.020102	   -0.017386	    0.008860	   -0.008525	    0.001088	   -0.020945	   -0.019857	   -0.004138	   -0.021509	   -0.025648	   -0.034152	    0.000854	   -0.033298	    0.027193	    0.015783	    0.042977	    0.006608	   -0.003918	    0.002690	   -0.046163	   -0.000602	   -0.046765	    0.011584	    0.025522	    0.037106	   -0.056112	   -0.007598	   -0.063710	   -0.023009	   -0.019244	   -0.042253	   -0.040345	   -0.000679	   -0.041024	   -0.014768	    0.045356	    0.030588	   -0.008958	    0.000114	   -0.008845	   -0.037468	    0.014911	   -0.022557	   -0.014860	    0.024141	    0.009281	   -0.026021	    0.012670	   -0.013351
     4.725	0	0	    0	    0.003128	    0.008010	    0.011138	    0.016348	    0.012565	    0.028913	    0.016720	    0.005336	    0.022056	    0.018705	    0.012448	    0.031153	   -0.002988	    0.011266	    0.008278	   -0.023356	    0.015129	   -0.008227	   -0.002259	    0.011150	    0.008891	   -0.004794	   -0.019277	   -0.024071	    0.003157	   -0.024038	   -0.020881	   -0.048741	   -0.004447	   -0.053188	    0.032579	    0.020049	    0.052628	    0.004641	   -0.006620	   -0.001979	   -0.029089	    0.002761	   -0.026328	    0.006713	    0.021848	    0.028561	   -0.036605	   -0.017331	   -0.053936	   -0.021934	   -0.031262	   -0.053196	   -0.042516	   -0.022025	   -0.064541	   -0.020070	    0.050427	    0.030357	   -0.008072	   -0.001580	   -0.009652	   -0.033504	    0.002342	   -0.031161	   -0.009216	    0.017527	    0.008311	   -0.041157	    0.006240	   -0.034917
     4.800	0	0	    0	    0.017626	    0.001749	    0.019375	    0.018698	    0.012810	    0.031507	    0.019772	    0.003853	    0.023625	    0.016658	    0.011912	    0.028571	   -0.009626	    0.011716	    0.002090	   -0.018769	    0.012578	   -0.006192	   -0.008556	    0.031564	    0.023008	   -0.010229	   -0.024186	   -0.034415	    0.002300	   -0.019677	   -0.017377	   -0.035551	   -0.039677	   -0.075228	    0.029919	    0.024319	    0.054237	    0.002217	   -0.008681	   -0.006464	   -0.028690	    0.011870	   -0.016820	    0.005999	    0.012379	    0.018378	   -0.018672	    0.014041	   -0.004631	   -0.027121	   -0.036116	   -0.063237	   -0.046952	   -0.044289	   -0.091240	   -0.025162	    0.051010	    0.025849	   -0.008019	   -0.002189	   -0.010208	   -0.037595	   -0.001044	   -0.038639	   -0.013050	    0.014649	    0.001599	   -0.008176	    0.008221	    0.000045
     4.875	0	0	    0	    0.012213	    0.001294	    0.013507	   -0.011898	    0.022488	    0.010590	    0.025108	    0.007845	    0.032953	    0.002785	    0.003980	    0.006764	   -0.038929	    0.001359	   -0.037570	   -0.037261	    0.014654	   -0.022608	    0.030440	    0.010727	    0.041167	   -0.012165	   -0.042435	   -0.054600	   -0.011260	   -0.011955	   -0.023215	   -0.055181	   -0.040500	   -0.095681	    0.004984	    0.023596	    0.028580	   -0.023767	   -0.027927	   -0.051695	   -0.053570	    0.025834	   -0.027736	   -0.010069	    0.030657	    0.020589	    0.016943	   -0.001898	    0.015046	   -0.039289	   -0.036743	   -0.076031	   -0.047239	   -0.049534	   -0.096772	   -0.012791	    0.046784	    0.033993	   -0.014478	   -0.000231	   -0.014709	   -0.038817	   -0.002654	   -0.041471	   -0.028413	    0.012703	   -0.015710	    0.024823	    0.035739	    0.060562
     4.950	0	0	    0	    0.017036	    0.000218	    0.017254	   -0.012116	   -0.019023	   -0.031139	    0.048008	    0.010874	    0.058882	    0.010418	   -0.004397	    0.006021	   -0.058218	   -0.039539	   -0.097757	   -0.028693	   -0.001057	   -0.029750	    0.083387	    0.037459	    0.120846	    0.002923	   -0.046391	   -0.043469	   -0.070733	   -0.053412	   -0.124145	   -0.028526	   -0.059413	   -0.087940	    0.004881	   -0.001538	    0.003343	   -0.021855	   -0.043958	   -0.065813	   -0.099578	   -0.023351	   -0.122929	    0.020340	    0.002168	    0.022508	    0.025049	   -0.005890	    0.019159	   -0.050237	   -0.054164	   -0.104401	   -0.037187	   -0.036595	   -0.073782	   -0.024074	   -0.019973	   -0.044046	   -0.005143	   -0.014825	   -0.019968	   -0.058603	   -0.001192	   -0.059795	   -0.021959	   -0.003475	   -0.025434	    0.039250	    0.080675	    0.119925
     5.025	0	0	    0	    0.027152	   -0.012636	    0.014516	   -0.009116	   -0.026742	   -0.035857	    0.063288	    0.010699	    0.073987	    0.027613	    0.003190	    0.030803	   -0.058739	   -0.082262	   -0.141001	   -0.034179	   -0.040911	   -0.075090	    0.104155	    0.043934	    0.148089	    0.005555	   -0.025117	   -0.019562	   -0.097336	   -0.051934	   -0.149269	   -0.065565	   -0.179624	   -0.245189	    0.023410	   -0.005099	    0.018311	   -0.010802	   -0.032939	   -0.043741	   -0.127973	   -0.080693	   -0.208666	    0.060136	    0.022266	    0.082403	    0.024690	   -0.009867	    0.014823	   -0.040514	   -0.022627	   -0.063141	   -0.114975	   -0.091291	   -0.206265	   -0.075157	   -0.196743	   -0.271900	    0.014391	   -0.015369	   -0.000978	   -0.069450	   -0.021794	   -0.091244	   -0.000852	    0.016377	    0.015526	    0.036303	    0.076713	    0.113016
     5.100	0	0	    0	    0.016546	    0.009372	    0.025918	   -0.004228	   -0.021186	   -0.025414	    0.064297	    0.031218	    0.095514	    0.036876	    0.019467	    0.056342	   -0.069200	   -0.088659	   -0.157859	   -0.041376	   -0.053101	   -0.094477	    0.117401	    0.084209	    0.201610	    0.006185	   -0.006639	   -0.000454	   -0.119877	   -0.059967	   -0.179844	   -0.053866	   -0.368445	   -0.422311	    0.039262	    0.007647	    0.046910	   -0.003697	   -0.024015	   -0.027712	   -0.137921	   -0.106447	   -0.244367	    0.077491	    0.044821	    0.122312	    0.031259	   -0.003610	    0.027649	   -0.058081	    0.002426	   -0.055655	   -0.126157	   -0.342380	   -0.468536	   -0.054287	   -0.365837	   -0.420123	    0.023337	   -0.012518	    0.010819	   -0.070014	   -0.013780	   -0.083794	    0.001713	    0.044123	    0.045836	    0.042308	    0.086311	    0.128619
     5.175	0	0	    0	    0.000007	    0.011957	    0.011964	   -0.001605	   -0.021380	   -0.022984	    0.066214	    0.027948	    0.094162	    0.028840	    0.022318	    0.051158	   -0.068849	   -0.095142	   -0.163991	   -0.038608	   -0.079181	   -0.117789	    0.137376	    0.058498	    0.195874	   -0.006984	   -0.015419	   -0.022403	   -0.110017	   -0.069454	   -0.179471	   -0.048725	   -0.417837	   -0.466562	    0.038711	    0.014831	    0.053542	    0.001712	   -0.019941	   -0.018228	   -0.139336	   -0.125839	   -0.265175	    0.080814	    0.052739	    0.133553	   -0.008108	    0.019690	    0.011582	   -0.058403	    0.001035	   -0.057368	   -0.119287	   -0.416095	   -0.535383	   -0.057144	   -0.401948	   -0.459092	    0.021124	   -0.012230	    0.008895	   -0.067235	   -0.016055	   -0.083290	   -0.003726	    0.046704	    0.042978	    0.035910	    0.081837	    0.117747
     5.250	0	0	    0	   -0.008759	    0.011120	    0.002361	   -0.005935	   -0.014986	   -0.020921	    0.037624	    0.033540	    0.071164	    0.007329	    0.007772	    0.015101	   -0.042769	   -0.080886	   -0.123656	   -0.045484	   -0.067342	   -0.112826	    0.045356	    0.115705	    0.161062	   -0.020102	   -0.018648	   -0.038750	   -0.083539	   -0.064602	   -0.148140	   -0.043949	   -0.417243	   -0.461192	    0.020309	    0.009892	    0.030201	    0.000030	   -0.012866	   -0.012836	   -0.122700	   -0.137096	   -0.259796	    0.041147	    0.070916	    0.112063	   -0.062496	    0.039397	   -0.023099	   -0.054947	   -0.003248	   -0.058195	   -0.117507	   -0.425514	   -0.543021	   -0.084311	   -0.409081	   -0.493392	   -0.003506	   -0.009616	   -0.013122	   -0.059096	   -0.016723	   -0.075819	   -0.001567	    0.037925	    0.036358	    0.006185	    0.054886	    0.061072
     5.325	0	0	    0	    0.008686	   -0.009778	   -0.001092	   -0.001777	   -0.011086	   -0.012863	    0.023668	    0.013223	    0.036891	    0.009068	   -0.002522	    0.006546	   -0.030697	   -0.051358	   -0.082055	   -0.032797	   -0.040837	   -0.073634	    0.033890	    0.061504	    0.095394	   -0.001489	   -0.020942	   -0.022431	   -0.058933	   -0.040551	   -0.099484	   -0.031855	   -0.405191	   -0.437046	    0.011395	   -0.000061	    0.011333	    0.007644	   -0.003121	    0.004523	   -0.065213	   -0.095464	   -0.160677	    0.016263	    0.059629	    0.075892	   -0.054900	    0.035656	   -0.019243	   -0.031779	    0.005410	   -0.026369	   -0.109054	   -0.418766	   -0.527820	   -0.071968	   -0.420094	   -0.492062	   -0.010838	   -0.013235	   -0.024072	   -0.054037	    0.007669	   -0.046368	    0.001894	    0.039741	    0.041635	   -0.006154	    0.039074	    0.032919
     5.400	0	0	    0	    0.008411	   -0.007030	    0.001381	    0.004688	   -0.002452	    0.002236	    0.022132	    0.007977	    0.030108	    0.014983	   -0.002217	    0.012767	   -0.025291	   -0.025584	   -0.050875	   -0.023576	   -0.021471	   -0.045047	    0.002229	    0.047354	    0.049582	    0.002722	   -0.015704	   -0.012982	   -0.014064	   -0.025535	   -0.039599	    0.060497	   -0.301516	   -0.241019	    0.016305	    0.003290	    0.019595	    0.008007	    0.009595	    0.017602	   -0.047659	   -0.033551	   -0.081209	    0.023428	    0.036788	    0.060217	   -0.047523	    0.024007	   -0.023516	   -0.002296	    0.003557	    0.001261	    0.025897	   -0.388657	   -0.362760	    0.042416	   -0.271756	   -0.229340	   -0.011191	   -0.000619	   -0.011809	   -0.049246	    0.015508	   -0.033738	    0.001244	    0.043673	    0.044917	   -0.020955	    0.036622	    0.015667
     5.475	0	0	    0	    0.037175	   -0.032634	    0.004540	    0.005250	    0.004846	    0.010095	    0.015152	    0.012345	    0.027496	    0.020546	    0.001241	    0.021787	   -0.013239	   -0.024662	   -0.037900	   -0.023249	    0.001347	   -0.021902	   -0.002576	    0.037888	    0.035312	    0.011888	   -0.024694	   -0.012805	   -0.016195	   -0.002162	   -0.018357	    0.000019	   -0.044076	   -0.044057	    0.020268	    0.008065	    0.028333	    0.007909	    0.008556	    0.016465	   -0.040171	   -0.022642	   -0.062814	    0.007893	    0.035006	    0.042900	   -0.028101	    0.013132	   -0.014968	   -0.014370	    0.008995	   -0.005374	   -0.012645	   -0.052551	   -0.065196	   -0.002904	   -0.048338	   -0.051242	   -0.008770	    0.005063	   -0.003707	   -0.027600	    0.028821	    0.001221	   -0.003263	    0.027078	    0.023815	   -0.004852	    0.007563	    0.002711
     5.550	0	0	    0	    0.007077	    0.000711	    0.007787	    0.007278	    0.007562	    0.014840	    0.021358	   -0.000064	    0.021293	    0.017081	    0.008404	    0.025485	   -0.026742	   -0.015326	   -0.042068	   -0.014982	   -0.004748	   -0.019730	    0.001381	    0.029568	    0.030949	    0.007131	   -0.021627	   -0.014496	   -0.013087	   -0.001673	   -0.014760	    0.006751	   -0.033982	   -0.027231	    0.023004	    0.012439	    0.035443	    0.006053	    0.008031	    0.014084	   -0.043457	   -0.005865	   -0.049322	    0.008624	    0.029142	    0.037766	    0.032742	    0.009379	    0.042120	   -0.022216	   -0.003482	   -0.025698	   -0.007637	   -0.037192	   -0.044830	    0.000849	   -0.021765	   -0.020916	   -0.007379	    0.005987	   -0.001392	   -0.032272	    0.029510	   -0.002762	   -0.012064	    0.023836	    0.011772	    0.021590	    0.025514	    0.047104
     5.625	0	0	    0	    0.007062	   -0.013614	   -0.006552	    0.010449	    0.003174	    0.013623	    0.012516	    0.003987	    0.016503	    0.014948	    0.009802	    0.024751	   -0.028669	   -0.017959	   -0.046628	   -0.008475	   -0.020156	   -0.028631	    0.020336	   -0.007880	    0.012456	    0.003399	   -0.028958	   -0.025560	   -0.005998	   -0.009891	   -0.015889	    0.010214	   -0.045967	   -0.035752	    0.017576	    0.016039	    0.033615	    0.003618	    0.007118	    0.010737	   -0.049434	    0.000059	   -0.049376	    0.005836	    0.014782	    0.020618	    0.033884	   -0.003223	    0.030661	   -0.030277	   -0.023878	   -0.054154	   -0.018285	   -0.011893	   -0.030178	   -0.007025	   -0.007515	   -0.014540	   -0.007308	    0.006920	   -0.000389	   -0.038842	    0.026983	   -0.011859	   -0.017570	    0.014668	   -0.002902	    0.005310	    0.061318	    0.066628
     5.700	0	0	    0	   -0.003385	   -0.003854	   -0.007238	    0.004008	    0.011864	    0.015871	    0.010827	    0.007242	    0.018068	    0.014609	    0.011697	    0.026305	   -0.031161	   -0.009276	   -0.040437	   -0.021695	    0.004674	   -0.017021	   -0.020356	    0.025557	    0.005202	   -0.015437	   -0.023515	   -0.038952	   -0.007001	   -0.009370	   -0.016371	   -0.020767	   -0.006305	   -0.027072	    0.014950	    0.015325	    0.030275	    0.003770	    0.007900	    0.011670	   -0.053529	   -0.001261	   -0.054789	   -0.021782	    0.023138	    0.001356	   -0.063176	    0.046752	   -0.016424	   -0.032945	   -0.034234	   -0.067178	   -0.001606	   -0.030596	   -0.032202	   -0.009677	   -0.005968	   -0.015645	   -0.007831	    0.009562	    0.001731	   -0.044162	    0.027034	   -0.017128	   -0.021141	    0.013498	   -0.007643	   -0.015827	    0.018664	    0.002836
     5.775	0	0	    0	   -0.008213	   -0.011452	   -0.019666	    0.003674	    0.009633	    0.013307	    0.003897	    0.006726	    0.010622	    0.011467	    0.012714	    0.024181	   -0.023035	   -0.010092	   -0.033127	   -0.004672	   -0.003904	   -0.008576	   -0.007361	    0.008829	    0.001468	   -0.017944	   -0.034750	   -0.052694	   -0.008037	   -0.011932	   -0.019969	   -0.014847	   -0.020304	   -0.035150	    0.012827	    0.015999	    0.028826	    0.001554	    0.009141	    0.010695	   -0.056031	    0.001953	   -0.054078	   -0.014232	    0.007890	   -0.006342	   -0.028989	   -0.038514	   -0.067503	   -0.036859	   -0.035699	   -0.072559	   -0.007992	   -0.020461	   -0.028453	   -0.011506	   -0.003325	   -0.014830	   -0.007861	    0.011141	    0.003280	   -0.048834	    0.027007	   -0.021827	   -0.017035	    0.016523	   -0.000512	   -0.047327	    0.010789	   -0.036538
     5.850	0	0	    0	    0.012455	   -0.015712	   -0.003257	    0.006207	    0.007593	    0.013800	    0.008567	    0.001299	    0.009866	    0.009500	    0.008717	    0.018216	   -0.016991	   -0.010729	   -0.027721	   -0.001038	    0.013408	    0.012370	   -0.003013	    0.008862	    0.005850	   -0.022681	   -0.033848	   -0.056529	   -0.012042	   -0.014353	   -0.026395	   -0.004804	   -0.021363	   -0.026167	    0.008746	    0.014568	    0.023314	    0.001126	    0.009362	    0.010488	   -0.049232	    0.001656	   -0.047575	   -0.007016	   -0.007061	   -0.014077	   -0.023927	   -0.055838	   -0.079766	   -0.045742	   -0.034819	   -0.080560	   -0.017353	   -0.011396	   -0.028749	   -0.005595	   -0.006431	   -0.012026	   -0.007129	    0.011727	    0.004598	   -0.042126	    0.025390	   -0.016736	   -0.014022	    0.020875	    0.006853	   -0.085027	   -0.020037	   -0.105064
     5.925	0	0	    0	    0.030460	   -0.031266	   -0.000806	    0.001159	    0.006461	    0.007620	    0.002943	    0.003027	    0.005971	    0.002990	    0.004341	    0.007331	   -0.014945	   -0.010245	   -0.025190	   -0.005094	    0.017267	    0.012172	   -0.015568	    0.002032	   -0.013536	    0.002947	   -0.041868	   -0.038921	   -0.020329	   -0.019417	   -0.039746	   -0.011663	   -0.030559	   -0.042222	    0.002240	    0.012520	    0.014760	    0.002052	    0.010298	    0.012350	   -0.041485	    0.002970	   -0.038515	   -0.002146	    0.002244	    0.000098	   -0.052957	   -0.026284	   -0.079241	   -0.042051	   -0.037088	   -0.079139	   -0.006581	   -0.028869	   -0.035450	   -0.015314	   -0.003214	   -0.018528	   -0.009626	    0.014202	    0.004576	   -0.036600	    0.027028	   -0.009572	   -0.012413	    0.022860	    0.010447	   -0.103681	   -0.037072	   -0.140753
     6.000	0	0	    0	    0.025416	   -0.004336	    0.021080	    0.002406	    0.006857	    0.009263	    0.012326	    0.002692	    0.015018	   -0.001042	    0.002870	    0.001828	   -0.008765	    0.000893	   -0.007872	    0.001938	    0.014111	    0.016049	    0.007575	    0.003479	    0.011054	    0.008245	   -0.020478	   -0.012233	   -0.027767	   -0.019549	   -0.047316	   -0.001021	   -0.033151	   -0.034172	    0.000244	    0.007133	    0.007377	    0.004390	    0.010138	    0.014528	   -0.041094	    0.002955	   -0.038139	   -0.000723	    0.009011	    0.008288	   -0.051545	   -0.034326	   -0.085870	   -0.037325	   -0.028620	   -0.065945	   -0.019393	   -0.016899	   -0.036293	   -0.014469	   -0.004266	   -0.018736	   -0.009947	    0.014439	    0.004492	   -0.031500	    0.034420	    0.002920	   -0.013729	    0.022285	    0.008556	   -0.095461	   -0.048778	   -0.144239
     6.075	0	0	    0	    0.012462	    0.015764	    0.028226	    0.009224	    0.007601	    0.016825	    0.018582	    0.003811	    0.022392	   -0.004627	    0.001376	   -0.003252	    0.001756	    0.009585	    0.011341	   -0.007643	    0.020610	    0.012968	   -0.022244	    0.025188	    0.002944	    0.013918	   -0.014188	   -0.000270	   -0.010916	   -0.023534	   -0.034451	   -0.001113	   -0.025358	   -0.026470	    0.001180	    0.004642	    0.005822	    0.005260	    0.012070	    0.017330	   -0.023495	    0.001288	   -0.022207	    0.001118	    0.002958	    0.004076	   -0.046005	   -0.033528	   -0.079533	   -0.007252	   -0.027256	   -0.034508	   -0.004240	   -0.016559	   -0.020798	   -0.007003	   -0.006099	   -0.013103	   -0.005885	    0.014795	    0.008910	   -0.014452	    0.033605	    0.019153	   -0.003527	    0.018844	    0.015317	   -0.094130	   -0.050146	   -0.144276
     6.150	0	0	    0	    0.011899	    0.013983	    0.025882	    0.013140	    0.007339	    0.020479	    0.028339	    0.004609	    0.032949	   -0.003094	   -0.005770	   -0.008864	    0.003071	    0.016094	    0.019165	   -0.002890	    0.015641	    0.012752	    0.018076	   -0.003026	    0.015050	    0.004463	   -0.022315	   -0.017852	   -0.007033	   -0.019332	   -0.026366	    0.008296	   -0.038754	   -0.030457	    0.000923	    0.002965	    0.003888	   -0.000304	    0.006175	    0.005872	   -0.026618	    0.011186	   -0.015432	    0.002810	   -0.000458	    0.002352	   -0.017720	   -0.038888	   -0.056607	   -0.005192	   -0.016558	   -0.021750	   -0.001811	   -0.006049	   -0.007859	   -0.001813	   -0.006060	   -0.007873	   -0.007565	    0.013036	    0.005471	   -0.007986	    0.042562	    0.034576	   -0.010411	    0.018801	    0.008390	   -0.041088	   -0.067801	   -0.108889
     6.225	0	0	    0	   -0.006908	    0.013487	    0.006579	    0.008636	    0.003256	    0.011892	    0.021677	    0.009750	    0.031427	   -0.008375	   -0.007572	   -0.015947	   -0.008137	    0.018734	    0.010596	   -0.000171	    0.010041	    0.009870	    0.048125	    0.030900	    0.079026	    0.003797	   -0.030880	   -0.027083	   -0.011407	   -0.020252	   -0.031659	   -0.011248	   -0.022396	   -0.033645	   -0.001907	    0.000978	   -0.000929	   -0.004784	    0.000379	   -0.004405	   -0.034902	    0.012446	   -0.022457	    0.008422	    0.005034	    0.013456	    0.036876	    0.001897	    0.038773	   -0.009914	   -0.025623	   -0.035537	    0.004568	   -0.021457	   -0.016889	   -0.002041	   -0.005477	   -0.007518	   -0.009906	    0.006759	   -0.003147	   -0.011202	    0.038796	    0.027595	   -0.023060	    0.005823	   -0.017237	    0.023440	    0.020601	    0.044041
     6.300	0	0	    0	    0.018513	   -0.005484	    0.013028	   -0.006353	    0.004047	   -0.002306	    0.016932	    0.008558	    0.025490	   -0.011282	   -0.009868	   -0.021150	   -0.007492	    0.012267	    0.004774	   -0.028195	    0.022198	   -0.005997	    0.030823	    0.067733	    0.098556	   -0.006411	   -0.025110	   -0.031522	   -0.023465	   -0.020440	   -0.043905	   -0.013238	   -0.036345	   -0.049582	   -0.002842	   -0.002825	   -0.005666	    0.000151	   -0.004337	   -0.004186	   -0.056789	    0.012546	   -0.044243	   -0.000978	    0.011139	    0.010161	    0.017569	    0.022375	    0.039944	   -0.018770	   -0.024760	   -0.043530	   -0.011614	   -0.013052	   -0.024666	   -0.000472	   -0.006612	   -0.007084	   -0.012753	   -0.000347	   -0.013100	   -0.011977	    0.032744	    0.020768	   -0.023788	   -0.000490	   -0.024277	    0.064714	    0.078496	    0.143209
     6.375	0	0	    0	   -0.011849	    0.015028	    0.003179	   -0.005202	   -0.004739	   -0.009941	    0.010319	    0.007882	    0.018201	   -0.014279	   -0.008457	   -0.022736	   -0.016255	    0.016800	    0.000545	   -0.032947	    0.014475	   -0.018472	    0.039358	    0.055283	    0.094640	   -0.003343	   -0.031461	   -0.034805	   -0.019409	   -0.029905	   -0.049314	   -0.020267	   -0.029400	   -0.049666	   -0.006409	   -0.002642	   -0.009051	    0.000660	    0.001283	    0.001943	   -0.057710	   -0.000623	   -0.058332	   -0.005751	    0.010174	    0.004423	    0.043418	    0.018250	    0.061669	   -0.015528	   -0.026632	   -0.042161	    0.014358	   -0.046395	   -0.032037	   -0.002250	   -0.009467	   -0.011717	   -0.014523	    0.000181	   -0.014341	   -0.008430	    0.032373	    0.023944	   -0.026222	    0.006425	   -0.019797	    0.088555	    0.120475	    0.209030
     6.450	0	0	    0	    0.000395	   -0.009780	   -0.009385	   -0.006645	   -0.003363	   -0.010008	    0.000471	    0.009102	    0.009573	   -0.018826	   -0.006685	   -0.025511	   -0.019242	    0.015512	   -0.003729	   -0.038378	    0.006880	   -0.031497	    0.026622	    0.053350	    0.079972	   -0.009290	   -0.028860	   -0.038150	   -0.019306	   -0.025367	   -0.044673	   -0.013135	   -0.043781	   -0.056916	   -0.009055	   -0.001666	   -0.010721	    0.003916	    0.006112	    0.010028	   -0.062515	    0.003026	   -0.059489	   -0.004202	    0.008944	    0.004742	    0.053079	    0.016763	    0.069842	   -0.015184	   -0.020553	   -0.035738	   -0.009089	   -0.013904	   -0.022993	   -0.004139	   -0.011770	   -0.015909	   -0.011188	    0.003030	   -0.008158	   -0.009339	    0.042317	    0.032977	   -0.023277	    0.013633	   -0.009645	    0.101267	    0.159956	    0.261224
     6.525	0	0	    0	   -0.042673	    0.032218	   -0.010455	   -0.005130	   -0.000617	   -0.005747	    0.000739	    0.001290	    0.002028	   -0.025683	   -0.003575	   -0.029258	   -0.029370	    0.023296	   -0.006074	   -0.042867	    0.011539	   -0.031327	    0.034354	    0.040353	    0.074707	   -0.023257	   -0.023632	   -0.046889	   -0.014910	   -0.025661	   -0.040571	   -0.010593	   -0.033948	   -0.044541	   -0.013428	   -0.001263	   -0.014691	    0.000417	    0.012230	    0.012647	   -0.060547	    0.013707	   -0.046840	   -0.009786	    0.008251	   -0.001535	    0.058989	    0.011142	    0.070130	   -0.016656	   -0.021112	   -0.037768	   -0.007748	   -0.015708	   -0.023456	   -0.003040	   -0.005568	   -0.008608	   -0.010388	    0.011244	    0.000857	   -0.012510	    0.045415	    0.032905	   -0.019590	    0.023035	    0.003445	    0.112817	    0.159845	    0.272662
     6.600	0	0	    0	   -0.015186	   -0.010541	   -0.025727	   -0.006264	   -0.000711	   -0.006974	    0.008438	   -0.005705	    0.002734	   -0.028050	   -0.010797	   -0.038846	   -0.032691	    0.022049	   -0.010643	   -0.039895	    0.000774	   -0.039121	    0.040099	    0.023178	    0.063276	   -0.043014	   -0.038161	   -0.081175	   -0.021168	   -0.022093	   -0.043261	   -0.004145	   -0.040592	   -0.044737	   -0.018134	   -0.003164	   -0.021298	   -0.015824	    0.008134	   -0.007690	   -0.070518	    0.017292	   -0.053226	   -0.027997	   -0.000482	   -0.028479	    0.001811	    0.013801	    0.015612	   -0.029382	   -0.022656	   -0.052038	   -0.003121	   -0.029502	   -0.032623	   -0.005019	   -0.005964	   -0.010983	   -0.017750	    0.011503	   -0.006247	   -0.017028	    0.047533	    0.030504	   -0.039696	    0.026170	   -0.013527	    0.003861	    0.156814	    0.160675
     6.675	0	0	    0	    0.023475	   -0.024941	   -0.001467	   -0.024106	   -0.011649	   -0.035755	    0.024024	    0.004063	    0.028086	   -0.018807	   -0.028859	   -0.047665	   -0.030856	    0.001130	   -0.029726	   -0.046084	    0.019550	   -0.026533	    0.045469	    0.065987	    0.111456	   -0.003893	   -0.053589	   -0.057482	   -0.088756	   -0.027247	   -0.116003	   -0.025768	   -0.053029	   -0.078797	   -0.020623	   -0.016486	   -0.037109	   -0.019551	   -0.013885	   -0.033436	   -0.097074	   -0.003849	   -0.100924	    0.000302	   -0.009536	   -0.009234	    0.007750	    0.007163	    0.014914	   -0.058854	   -0.037252	   -0.096106	   -0.027167	   -0.026508	   -0.053675	   -0.025859	   -0.016539	   -0.042398	   -0.017142	   -0.002557	   -0.019699	   -0.044760	    0.041873	   -0.002886	   -0.040168	    0.000129	   -0.040039	   -0.020184	    0.048864	    0.028680
     6.750	0	0	    0	    0.014640	    0.010454	    0.025095	   -0.023698	   -0.022556	   -0.046253	    0.040818	    0.003200	    0.044018	   -0.002438	   -0.009631	   -0.012069	   -0.041029	   -0.039882	   -0.080911	   -0.047337	   -0.001775	   -0.049112	    0.070588	    0.071095	    0.141683	   -0.007498	   -0.026924	   -0.034423	   -0.116633	   -0.054836	   -0.171470	   -0.051453	   -0.123610	   -0.175062	    0.002363	   -0.017626	   -0.015263	   -0.019209	   -0.019690	   -0.038898	   -0.114306	   -0.027549	   -0.141855	    0.006425	    0.005151	    0.011576	   -0.035175	   -0.021360	   -0.056535	   -0.054865	   -0.025298	   -0.080162	   -0.077067	   -0.071769	   -0.148836	   -0.048362	   -0.122481	   -0.170844	   -0.004240	   -0.010399	   -0.014638	   -0.073856	    0.004200	   -0.069656	   -0.027896	    0.007543	   -0.020353	   -0.073140	    0.010676	   -0.062464
     6.825	0	0	    0	    0.024505	    0.031294	    0.055799	   -0.021185	   -0.024119	   -0.045304	    0.048396	    0.009528	    0.057925	    0.011678	    0.005000	    0.016678	   -0.044613	   -0.039734	   -0.084347	   -0.054416	   -0.025990	   -0.080406	    0.082721	    0.073555	    0.156276	    0.005005	   -0.020800	   -0.015796	   -0.111864	   -0.074097	   -0.185961	   -0.059435	   -0.233324	   -0.292760	    0.021318	   -0.006056	    0.015261	   -0.017810	   -0.022936	   -0.040746	   -0.111246	   -0.074834	   -0.186080	    0.017280	    0.007883	    0.025163	   -0.013623	   -0.056199	   -0.069822	   -0.044324	   -0.032236	   -0.076560	   -0.090137	   -0.219145	   -0.309282	   -0.047646	   -0.248894	   -0.296540	    0.007100	   -0.013324	   -0.006224	   -0.078945	   -0.014169	   -0.093114	   -0.021561	    0.021236	   -0.000325	   -0.069570	   -0.012362	   -0.081932
     6.900	0	0	    0	    0.050497	    0.014713	    0.065210	   -0.022250	   -0.023562	   -0.045813	    0.051017	    0.030342	    0.081359	    0.022115	    0.014287	    0.036402	   -0.053299	   -0.047646	   -0.100945	   -0.060566	   -0.031012	   -0.091578	    0.085645	    0.090256	    0.175901	    0.019485	   -0.014723	    0.004763	   -0.143194	   -0.069139	   -0.212333	   -0.073472	   -0.319383	   -0.392855	    0.028000	    0.004719	    0.032719	   -0.013401	   -0.022998	   -0.036399	   -0.122320	   -0.074804	   -0.197124	    0.030228	    0.014787	    0.045016	   -0.006243	   -0.051207	   -0.057450	   -0.064976	   -0.016128	   -0.081105	   -0.126200	   -0.308245	   -0.434445	   -0.065734	   -0.335722	   -0.401456	    0.008196	   -0.019335	   -0.011139	   -0.080805	   -0.020690	   -0.101495	   -0.015850	    0.028131	    0.012281	   -0.026607	   -0.001576	   -0.028184
     6.975	0	0	    0	    0.020987	    0.020106	    0.041093	   -0.026812	   -0.019255	   -0.046066	    0.061669	    0.029502	    0.091171	    0.021892	    0.021502	    0.043394	   -0.063988	   -0.063217	   -0.127205	   -0.065837	   -0.037715	   -0.103552	    0.101483	    0.101105	    0.202588	    0.007128	   -0.008252	   -0.001124	   -0.160960	   -0.075935	   -0.236895	   -0.071997	   -0.400548	   -0.472544	    0.033234	    0.016641	    0.049875	   -0.016280	   -0.022531	   -0.038811	   -0.149651	   -0.070422	   -0.220073	    0.045133	    0.037146	    0.082279	    0.003522	    0.017428	    0.020950	   -0.086286	   -0.005574	   -0.091861	   -0.166480	   -0.390678	   -0.557157	   -0.071890	   -0.390279	   -0.462169	    0.008900	   -0.017161	   -0.008262	   -0.100522	   -0.015723	   -0.116245	   -0.041065	    0.042418	    0.001354	    0.057218	    0.060997	    0.118215
     7.050	0	0	    0	    0.018005	    0.018849	    0.036853	   -0.020184	   -0.025571	   -0.045755	    0.061309	    0.029945	    0.091254	    0.019343	    0.020832	    0.040175	   -0.071174	   -0.079023	   -0.150196	   -0.064522	   -0.062431	   -0.126953	    0.138005	    0.063431	    0.201436	    0.009411	   -0.007337	    0.002075	   -0.166075	   -0.096117	   -0.262192	   -0.080623	   -0.437171	   -0.517794	    0.028120	    0.016728	    0.044848	   -0.015247	   -0.023082	   -0.038329	   -0.156852	   -0.092754	   -0.249606	    0.040452	    0.045148	    0.085600	    0.009523	    0.029507	    0.039030	   -0.104599	   -0.023740	   -0.128339	   -0.190551	   -0.460529	   -0.651080	   -0.087471	   -0.425454	   -0.512925	    0.003448	   -0.017755	   -0.014308	   -0.100057	   -0.024002	   -0.124059	   -0.054500	    0.032618	   -0.021882	    0.075269	    0.147811	    0.223080
     7.125	0	0	    0	    0.018744	   -0.002048	    0.016695	   -0.021777	   -0.023180	   -0.044957	    0.065364	    0.024460	    0.089824	    0.016286	    0.016833	    0.033119	   -0.069860	   -0.081690	   -0.151550	   -0.067415	   -0.068720	   -0.136136	    0.106981	    0.090074	    0.197055	    0.011102	   -0.009098	    0.002004	   -0.154621	   -0.104572	   -0.259193	   -0.082467	   -0.461170	   -0.543637	    0.025457	    0.013532	    0.038989	   -0.007332	   -0.019640	   -0.026973	   -0.142883	   -0.117155	   -0.260038	    0.053889	    0.046118	    0.100007	    0.031142	    0.020217	    0.051359	   -0.093437	   -0.037433	   -0.130870	   -0.185183	   -0.506720	   -0.691903	   -0.088285	   -0.443835	   -0.532120	    0.004319	   -0.019075	   -0.014755	   -0.083799	   -0.030318	   -0.114117	   -0.027542	    0.027238	   -0.000304	    0.101199	    0.168411	    0.269610
     7.200	0	0	    0	    0.002607	   -0.003221	   -0.000614	   -0.017310	   -0.024257	   -0.041567	    0.050933	    0.031745	    0.082679	   -0.003369	    0.006130	    0.002761	   -0.072291	   -0.086770	   -0.159061	   -0.057600	   -0.076787	   -0.134387	    0.116420	    0.090091	    0.206512	   -0.006482	   -0.010633	   -0.017115	   -0.143943	   -0.100100	   -0.244044	   -0.078624	   -0.463712	   -0.542335	    0.005531	    0.005277	    0.010808	    0.000204	   -0.010664	   -0.010460	   -0.132358	   -0.112486	   -0.244844	    0.054352	    0.050681	    0.105033	    0.043491	    0.020689	    0.064181	   -0.091186	   -0.028852	   -0.120038	   -0.185949	   -0.510579	   -0.696527	   -0.102319	   -0.451413	   -0.553732	   -0.009313	   -0.014502	   -0.023815	   -0.075430	   -0.023328	   -0.098758	   -0.020496	    0.038217	    0.017721	    0.111070	    0.187020	    0.298090
     7.275	0	0	    0	   -0.023480	   -0.000003	   -0.023483	   -0.014158	   -0.016090	   -0.030248	    0.019609	    0.013502	    0.033112	   -0.012601	   -0.004921	   -0.017523	   -0.059874	   -0.065489	   -0.125363	   -0.064870	   -0.074359	   -0.139229	    0.056139	    0.076414	    0.132553	   -0.013797	   -0.023500	   -0.037297	   -0.112423	   -0.085808	   -0.198230	   -0.076200	   -0.459959	   -0.536159	   -0.014119	   -0.014896	   -0.029014	   -0.002676	    0.003500	    0.000824	   -0.101432	   -0.108017	   -0.209448	    0.021527	    0.044256	    0.065783	    0.025551	    0.015577	    0.041128	   -0.088191	   -0.035265	   -0.123457	   -0.177996	   -0.510130	   -0.688127	   -0.125251	   -0.463331	   -0.588582	   -0.032614	   -0.014595	   -0.047209	   -0.065378	   -0.011660	   -0.077038	   -0.032539	    0.042663	    0.010125	    0.074430	    0.181040	    0.255470
     7.350	0	0	    0	   -0.019273	   -0.003112	   -0.022386	   -0.005419	   -0.007571	   -0.012990	    0.008918	    0.010784	    0.019701	   -0.013575	   -0.006971	   -0.020546	   -0.044516	   -0.037459	   -0.081975	   -0.057542	   -0.039159	   -0.096701	    0.002095	    0.063969	    0.066064	   -0.008472	   -0.022152	   -0.030624	   -0.088407	   -0.060643	   -0.149050	   -0.077631	   -0.449372	   -0.527003	   -0.015804	   -0.015053	   -0.030857	   -0.004605	    0.006332	    0.001727	   -0.086644	   -0.065294	   -0.151938	    0.016306	    0.017975	    0.034281	    0.024054	   -0.016335	    0.007719	   -0.083658	   -0.033127	   -0.116785	   -0.166724	   -0.499745	   -0.666469	   -0.127516	   -0.463830	   -0.591346	   -0.035575	   -0.011303	   -0.046878	   -0.069095	    0.010385	   -0.058709	   -0.031382	    0.027852	   -0.003530	    0.015116	    0.098802	    0.113919
     7.425	0	0	    0	   -0.008558	    0.000442	   -0.008116	   -0.009064	    0.000067	   -0.008997	    0.022042	    0.004945	    0.026987	   -0.006944	   -0.007875	   -0.014819	   -0.038621	   -0.032209	   -0.070830	   -0.047551	   -0.029013	   -0.076564	    0.040529	    0.030704	    0.071233	   -0.001643	   -0.021121	   -0.022764	   -0.089044	   -0.051133	   -0.140177	   -0.069623	   -0.446895	   -0.516517	   -0.012392	   -0.011703	   -0.024095	   -0.004748	    0.007379	    0.002630	   -0.078407	   -0.034478	   -0.112885	   -0.000790	    0.038248	    0.037458	   -0.050333	    0.037958	   -0.012375	   -0.071295	   -0.030878	   -0.102174	   -0.162320	   -0.491183	   -0.653503	   -0.121152	   -0.459927	   -0.581080	   -0.036426	   -0.009888	   -0.046314	   -0.070717	    0.018464	   -0.052252	   -0.023958	    0.030465	    0.006507	   -0.001427	    0.057608	    0.056181
     7.500	0	0	    0	    0.005381	   -0.003197	    0.002184	   -0.005744	   -0.010722	   -0.016466	    0.033681	    0.009217	    0.042898	   -0.008960	   -0.007125	   -0.016086	   -0.031282	   -0.035773	   -0.067056	   -0.034357	   -0.040818	   -0.075175	    0.058200	    0.025239	    0.083440	    0.003621	   -0.019777	   -0.016156	   -0.098231	   -0.059874	   -0.158104	   -0.066299	   -0.447110	   -0.513409	   -0.009691	   -0.012665	   -0.022356	   -0.001774	    0.007074	    0.005300	   -0.078565	   -0.037275	   -0.115840	    0.026669	    0.010005	    0.036674	   -0.039604	   -0.014148	   -0.053752	   -0.070792	   -0.035898	   -0.106690	   -0.163453	   -0.489336	   -0.652788	   -0.121329	   -0.457992	   -0.579320	   -0.035782	   -0.012972	   -0.048755	   -0.069197	    0.007346	   -0.061851	   -0.012014	    0.027120	    0.015106	   -0.012879	    0.035720	    0.022841
     7.575	0	0	    0	    0.009229	   -0.020953	   -0.011724	   -0.003736	   -0.010908	   -0.014645	    0.020884	    0.008391	    0.029275	   -0.013248	   -0.008722	   -0.021970	   -0.012383	   -0.020909	   -0.033292	   -0.037272	   -0.037171	   -0.074443	    0.033862	    0.019124	    0.052986	    0.003950	   -0.014671	   -0.010721	   -0.094002	   -0.055239	   -0.149241	   -0.062516	   -0.443420	   -0.505936	   -0.009565	   -0.010569	   -0.020134	    0.000536	    0.011334	    0.011870	   -0.064770	   -0.038950	   -0.103719	    0.018368	    0.012126	    0.030494	   -0.042447	   -0.023556	   -0.066004	   -0.062264	   -0.030839	   -0.093103	   -0.157229	   -0.488077	   -0.645306	   -0.119357	   -0.460211	   -0.579567	   -0.035061	   -0.010683	   -0.045743	   -0.064591	    0.011391	   -0.053200	   -0.004528	    0.032583	    0.028054	   -0.011871	    0.031823	    0.019953
     7.650	0	0	    0	    0.000000	    0.000000	    0.000000	   -0.009061	   -0.001597	   -0.010657	    0.018302	    0.003749	    0.022051	   -0.013049	   -0.005845	   -0.018894	   -0.013330	    0.008991	   -0.004338	   -0.035675	   -0.013319	   -0.048994	    0.007692	    0.035796	    0.043488	    0.000499	   -0.011421	   -0.010922	   -0.082177	   -0.047930	   -0.130107	   -0.062020	   -0.430559	   -0.492579	   -0.010978	   -0.008418	   -0.019396	   -0.001165	    0.020596	    0.019431	   -0.037674	   -0.002981	   -0.040655	    0.010133	    0.030605	    0.040738	    0.001480	   -0.010888	   -0.009408	   -0.050826	   -0.022716	   -0.073542	   -0.153195	   -0.477960	   -0.631155	   -0.108896	   -0.450654	   -0.559550	   -0.033644	   -0.005355	   -0.039000	   -0.066631	    0.022039	   -0.044592	   -0.012433	    0.048684	    0.036251	    0.065774	    0.033239	    0.099014
     7.725	0	0	    0	    0.012120	   -0.020002	   -0.007882	   -0.021882	   -0.013431	   -0.035313	    0.029216	    0.015612	    0.044829	   -0.014006	   -0.013799	   -0.027805	   -0.065550	   -0.022982	   -0.088532	   -0.055956	   -0.022225	   -0.078181	    0.056919	    0.020463	    0.077382	    0.011307	   -0.019160	   -0.007853	   -0.124815	   -0.045430	   -0.170244	   -0.079885	   -0.426217	   -0.506101	   -0.015380	   -0.011575	   -0.026955	   -0.013026	    0.006846	   -0.006179	   -0.075567	    0.031617	   -0.043950	    0.015414	    0.019901	    0.035315	    0.030699	   -0.012040	    0.018659	   -0.077750	   -0.019088	   -0.096838	   -0.155051	   -0.460570	   -0.615621	   -0.108859	   -0.432575	   -0.541434	   -0.037947	   -0.009950	   -0.047897	   -0.073471	    0.032143	   -0.041328	   -0.028018	    0.039450	    0.011432	    0.082542	    0.108817	    0.191359
     7.800	0	0	    0	   -0.001239	    0.003945	    0.002706	   -0.012283	   -0.007883	   -0.020166	    0.042439	    0.025009	    0.067448	   -0.004516	   -0.008972	   -0.013489	   -0.094567	   -0.081737	   -0.176304	   -0.082192	   -0.060880	   -0.143072	    0.072720	    0.054004	    0.126724	    0.018070	    0.002992	    0.021062	   -0.143487	   -0.078384	   -0.221871	   -0.093030	   -0.456162	   -0.549192	   -0.004052	   -0.014157	   -0.018209	   -0.010006	   -0.003635	   -0.013641	   -0.133606	   -0.043934	   -0.177541	    0.007429	    0.031779	    0.039208	    0.029288	    0.020670	    0.049958	   -0.075452	   -0.029206	   -0.104658	   -0.183429	   -0.486424	   -0.669853	   -0.118505	   -0.446844	   -0.565349	   -0.028423	   -0.017262	   -0.045685	   -0.102482	    0.008225	   -0.094257	   -0.042422	    0.041944	   -0.000478	    0.108550	    0.147208	    0.255758
     7.875	0	0	    0	   -0.026232	    0.024036	   -0.002196	   -0.008073	   -0.001550	   -0.009622	    0.049190	    0.032642	    0.081831	   -0.003589	    0.002683	   -0.000906	   -0.112487	   -0.106754	   -0.219241	   -0.103032	   -0.092224	   -0.195256	    0.073772	    0.097104	    0.170876	    0.002962	    0.020565	    0.023528	   -0.146404	   -0.089243	   -0.235647	   -0.097884	   -0.459530	   -0.557414	   -0.001323	   -0.005084	   -0.006407	   -0.010217	   -0.002755	   -0.012972	   -0.146855	   -0.115078	   -0.261933	    0.008360	    0.036539	    0.044900	    0.037033	    0.031750	    0.068784	   -0.078797	   -0.018594	   -0.097391	   -0.197371	   -0.505721	   -0.703092	   -0.123833	   -0.454535	   -0.578368	   -0.026862	   -0.016559	   -0.043421	   -0.112250	   -0.010233	   -0.122483	   -0.047866	    0.055735	    0.007870	    0.094459	    0.197363	    0.291822
     7.950	0	0	    0	   -0.015434	    0.002392	   -0.013042	   -0.009370	   -0.001436	   -0.010806	    0.058136	    0.026311	    0.084447	   -0.008239	    0.003483	   -0.004755	   -0.110504	   -0.121249	   -0.231753	   -0.109236	   -0.114995	   -0.224231	    0.087725	    0.087338	    0.175063	   -0.003549	    0.014421	    0.010872	   -0.148822	   -0.085844	   -0.234665	   -0.086828	   -0.470105	   -0.556933	   -0.006046	   -0.003684	   -0.009730	   -0.012197	   -0.001407	   -0.013604	   -0.160211	   -0.139633	   -0.299843	    0.007640	    0.035572	    0.043212	    0.040543	    0.019752	    0.060295	   -0.089973	   -0.017608	   -0.107581	   -0.202767	   -0.513461	   -0.716227	   -0.128468	   -0.458071	   -0.586540	   -0.031926	   -0.015711	   -0.047636	   -0.119815	   -0.014163	   -0.133978	   -0.058379	    0.057757	   -0.000622	    0.102787	    0.169038	    0.271825
     8.025	0	0	    0	   -0.010892	   -0.023418	   -0.034310	   -0.023391	   -0.001393	   -0.024785	    0.029527	    0.025894	    0.055421	   -0.013587	   -0.007122	   -0.020710	   -0.097591	   -0.119336	   -0.216928	   -0.110844	   -0.126546	   -0.237391	    0.050104	    0.111588	    0.161691	   -0.023128	   -0.010888	   -0.034016	   -0.139520	   -0.084311	   -0.223831	   -0.095048	   -0.456967	   -0.552014	   -0.019390	   -0.008054	   -0.027444	   -0.012565	   -0.002497	   -0.015061	   -0.161077	   -0.146247	   -0.307324	   -0.006983	    0.037375	    0.030392	    0.024628	    0.017155	    0.041783	   -0.101869	   -0.024621	   -0.126490	   -0.197270	   -0.512997	   -0.710267	   -0.138576	   -0.461202	   -0.599778	   -0.044106	   -0.014188	   -0.058293	   -0.116584	   -0.018330	   -0.134914	   -0.068949	    0.047225	   -0.021724	    0.092426	    0.158621	    0.251047
     8.100	0	0	    0	   -0.008843	   -0.022893	   -0.031736	   -0.026380	   -0.003264	   -0.029644	    0.007295	    0.015898	    0.023193	   -0.017453	   -0.005043	   -0.022496	   -0.094657	   -0.103476	   -0.198133	   -0.094843	   -0.117492	   -0.212335	    0.026806	    0.070695	    0.097501	   -0.016843	   -0.024827	   -0.041670	   -0.121260	   -0.069655	   -0.190916	   -0.094845	   -0.460108	   -0.554954	   -0.022163	   -0.012664	   -0.034827	   -0.010608	    0.006146	   -0.004462	   -0.140557	   -0.132142	   -0.272698	   -0.020110	    0.025572	    0.005462	    0.015655	   -0.012643	    0.003012	   -0.093009	   -0.032041	   -0.125049	   -0.186190	   -0.503352	   -0.689541	   -0.134795	   -0.468129	   -0.602924	   -0.047485	   -0.013219	   -0.060704	   -0.107730	   -0.005983	   -0.113714	   -0.070182	    0.037072	   -0.033110	    0.037069	    0.116830	    0.153899
     8.175	0	0	    0	   -0.005185	   -0.013072	   -0.018258	   -0.020802	    0.001085	   -0.019717	    0.005925	    0.006093	    0.012018	   -0.010028	   -0.007267	   -0.017295	   -0.059733	   -0.086480	   -0.146213	   -0.068028	   -0.091996	   -0.160024	    0.017189	    0.045165	    0.062354	   -0.008140	   -0.015782	   -0.023922	   -0.098677	   -0.060667	   -0.159344	   -0.075289	   -0.439836	   -0.515125	   -0.018600	   -0.011765	   -0.030365	   -0.004886	    0.012841	    0.007956	   -0.094633	   -0.104940	   -0.199573	   -0.009459	    0.044995	    0.035535	   -0.048598	    0.052459	    0.003861	   -0.063744	   -0.031481	   -0.095225	   -0.163282	   -0.491785	   -0.655067	   -0.111034	   -0.448817	   -0.559851	   -0.039944	   -0.004553	   -0.044497	   -0.088872	    0.004737	   -0.084134	   -0.013288	    0.031387	    0.018099	    0.007872	    0.067125	    0.074998
     8.250	0	0	    0	    0.026500	   -0.014262	    0.012237	   -0.021363	    0.002986	   -0.018377	    0.027727	    0.002222	    0.029949	   -0.003387	   -0.005554	   -0.008941	   -0.051957	   -0.056464	   -0.108420	   -0.044789	   -0.052333	   -0.097122	    0.040423	    0.023694	    0.064118	    0.002477	   -0.023771	   -0.021294	   -0.092911	   -0.034516	   -0.127427	   -0.063241	   -0.419894	   -0.483136	   -0.019132	   -0.006876	   -0.026008	   -0.017013	    0.008138	   -0.008875	   -0.071678	   -0.059210	   -0.130888	    0.022984	    0.008877	    0.031862	   -0.006454	   -0.053202	   -0.059656	   -0.056966	   -0.007368	   -0.064334	   -0.145387	   -0.460554	   -0.605941	   -0.099651	   -0.430302	   -0.529953	   -0.037300	    0.003009	   -0.034292	   -0.063432	    0.026115	   -0.037316	   -0.000351	    0.044649	    0.044298	   -0.048532	    0.019281	   -0.029251
     8.325	0	0	    0	    0.023292	    0.007090	    0.030381	   -0.016712	   -0.010289	   -0.027001	    0.046923	    0.007194	    0.054117	    0.014927	   -0.000705	    0.014223	   -0.079328	   -0.084624	   -0.163952	   -0.055476	   -0.039987	   -0.095463	    0.090267	    0.041067	    0.131334	    0.008146	   -0.006093	    0.002053	   -0.133094	   -0.066939	   -0.200033	   -0.082096	   -0.441512	   -0.523608	   -0.008225	   -0.020654	   -0.028880	   -0.016027	   -0.011497	   -0.027524	   -0.104554	   -0.061964	   -0.166517	    0.035955	    0.020808	    0.056763	   -0.005604	   -0.039948	   -0.045553	   -0.064032	   -0.025264	   -0.089295	   -0.164216	   -0.467729	   -0.631945	   -0.105892	   -0.441689	   -0.547582	   -0.024913	   -0.011650	   -0.036562	   -0.076000	    0.022977	   -0.053023	    0.009155	    0.036260	    0.045415	   -0.041417	   -0.027449	   -0.068866
     8.400	0	0	    0	    0.004248	    0.033706	    0.037954	   -0.011005	   -0.007652	   -0.018656	    0.058330	    0.019935	    0.078265	    0.026504	    0.019939	    0.046443	   -0.092771	   -0.099343	   -0.192115	   -0.066198	   -0.051003	   -0.117201	    0.112551	    0.080362	    0.192913	    0.008828	    0.008066	    0.016894	   -0.144576	   -0.084309	   -0.228885	   -0.092042	   -0.467918	   -0.559960	    0.012735	   -0.008424	    0.004312	   -0.014329	   -0.013336	   -0.027665	   -0.136138	   -0.102214	   -0.238351	    0.066236	    0.027629	    0.093866	    0.022607	   -0.054756	   -0.032149	   -0.071723	   -0.019538	   -0.091261	   -0.180979	   -0.497826	   -0.678805	   -0.099760	   -0.458766	   -0.558526	   -0.008195	   -0.015812	   -0.024007	   -0.088385	    0.006009	   -0.082376	    0.009443	    0.050077	    0.059521	    0.048540	   -0.005924	    0.042616
     8.475	0	0	    0	    0.016902	    0.017608	    0.034510	   -0.004326	   -0.009370	   -0.013696	    0.068571	    0.014233	    0.082804	    0.032629	    0.023442	    0.056071	   -0.103415	   -0.110142	   -0.213557	   -0.070074	   -0.071981	   -0.142055	    0.161634	    0.067299	    0.228933	    0.016947	    0.005211	    0.022158	   -0.145078	   -0.092112	   -0.237190	   -0.092461	   -0.490310	   -0.582771	    0.019819	   -0.000007	    0.019811	   -0.012615	   -0.018706	   -0.031321	   -0.152877	   -0.125550	   -0.278428	    0.074632	    0.064283	    0.138915	    0.052414	    0.007332	    0.059746	   -0.082295	   -0.028170	   -0.110465	   -0.188608	   -0.525528	   -0.714136	   -0.102839	   -0.469932	   -0.572771	   -0.002296	   -0.017962	   -0.020257	   -0.092535	   -0.010844	   -0.103379	   -0.006464	    0.053723	    0.047260	    0.107289	    0.089942	    0.197231
     8.550	0	0	    0	    0.029662	    0.010620	    0.040282	   -0.011199	   -0.004105	   -0.015304	    0.052618	    0.039917	    0.092535	    0.035541	    0.026764	    0.062305	   -0.097692	   -0.117411	   -0.215104	   -0.084821	   -0.072713	   -0.157534	    0.087997	    0.169880	    0.257876	    0.020184	    0.009944	    0.030128	   -0.147552	   -0.096027	   -0.243579	   -0.101283	   -0.493930	   -0.595214	    0.025325	    0.004029	    0.029353	   -0.008193	   -0.019355	   -0.027548	   -0.166967	   -0.145796	   -0.312763	    0.064619	    0.074737	    0.139356	    0.040009	    0.035627	    0.075636	   -0.089567	   -0.036283	   -0.125850	   -0.194705	   -0.541167	   -0.735872	   -0.107586	   -0.478803	   -0.586390	    0.002552	   -0.017224	   -0.014672	   -0.082139	   -0.020477	   -0.102616	   -0.011771	    0.044741	    0.032969	    0.145708	    0.132645	    0.278353
     8.625	0	0	    0	    0.018321	    0.015864	    0.034184	   -0.008083	   -0.006145	   -0.014227	    0.067357	    0.026022	    0.093378	    0.031657	    0.028867	    0.060524	   -0.095445	   -0.117192	   -0.212637	   -0.076935	   -0.090360	   -0.167295	    0.146779	    0.104856	    0.251635	    0.029154	   -0.001075	    0.028080	   -0.146657	   -0.101301	   -0.247958	   -0.102305	   -0.508565	   -0.610870	    0.026419	    0.007825	    0.034244	   -0.005073	   -0.017440	   -0.022513	   -0.165547	   -0.153633	   -0.319180	    0.078070	    0.064593	    0.142663	    0.053868	    0.036503	    0.090371	   -0.087558	   -0.043219	   -0.130778	   -0.203799	   -0.559023	   -0.762823	   -0.114124	   -0.488789	   -0.602913	    0.004440	   -0.015655	   -0.011214	   -0.071526	   -0.024040	   -0.095566	   -0.013216	    0.040881	    0.027666	    0.149436	    0.172351	    0.321787
     8.700	0	0	    0	   -0.002512	    0.023631	    0.021119	   -0.011340	   -0.004149	   -0.015489	    0.059621	    0.032103	    0.091723	    0.020086	    0.028381	    0.048467	   -0.090234	   -0.110609	   -0.200843	   -0.084806	   -0.084381	   -0.169188	    0.131253	    0.100650	    0.231904	    0.010336	    0.012029	    0.022365	   -0.143048	   -0.104153	   -0.247201	   -0.104072	   -0.518324	   -0.622395	    0.022577	    0.007228	    0.029805	   -0.003342	   -0.013963	   -0.017305	   -0.166851	   -0.150588	   -0.317439	    0.062133	    0.069229	    0.131362	    0.072241	    0.015463	    0.087704	   -0.090465	   -0.044782	   -0.135247	   -0.210221	   -0.572583	   -0.782804	   -0.121808	   -0.498362	   -0.620170	    0.000247	   -0.014375	   -0.014128	   -0.073504	   -0.015887	   -0.089392	   -0.018923	    0.043089	    0.024166	    0.150766	    0.172905	    0.323671
     8.775	0	0	    0	    0.000360	   -0.010838	   -0.010478	   -0.015361	   -0.005693	   -0.021055	    0.040375	    0.033128	    0.073503	   -0.004303	    0.012302	    0.007999	   -0.075977	   -0.100044	   -0.176021	   -0.084200	   -0.082066	   -0.166266	    0.079165	    0.141666	    0.220831	   -0.010656	   -0.002376	   -0.013032	   -0.140122	   -0.099573	   -0.239695	   -0.109951	   -0.517680	   -0.627631	    0.000895	    0.000199	    0.001093	   -0.007822	   -0.006388	   -0.014210	   -0.152235	   -0.149366	   -0.301600	    0.037003	    0.070792	    0.107796	    0.035945	    0.025318	    0.061263	   -0.101238	   -0.044123	   -0.145360	   -0.221731	   -0.580124	   -0.801855	   -0.150013	   -0.502996	   -0.653009	   -0.022716	   -0.011639	   -0.034355	   -0.087297	   -0.016358	   -0.103655	   -0.039109	    0.042926	    0.003818	    0.089264	    0.189029	    0.278293
     8.850	0	0	    0	   -0.011203	   -0.009979	   -0.021182	   -0.023264	   -0.001951	   -0.025215	    0.001729	    0.018965	    0.020694	   -0.013692	   -0.006370	   -0.020062	   -0.069008	   -0.071669	   -0.140677	   -0.079273	   -0.081217	   -0.160490	    0.047737	    0.074495	    0.122232	   -0.010811	   -0.015991	   -0.026801	   -0.123705	   -0.086544	   -0.210249	   -0.125888	   -0.511561	   -0.637449	   -0.019954	   -0.015024	   -0.034978	   -0.010490	    0.001324	   -0.009166	   -0.118317	   -0.125562	   -0.243879	    0.024839	    0.039266	    0.064105	    0.026929	    0.000160	    0.027089	   -0.094720	   -0.054757	   -0.149477	   -0.213969	   -0.584088	   -0.798057	   -0.168480	   -0.520682	   -0.689162	   -0.043586	   -0.013510	   -0.057096	   -0.081035	   -0.010820	   -0.091855	   -0.033790	    0.024516	   -0.009274	    0.037614	    0.092407	    0.130021
     8.925	0	0	    0	   -0.006705	    0.002708	   -0.003997	   -0.023185	    0.004640	   -0.018546	    0.004645	    0.006174	    0.010819	   -0.013932	   -0.003702	   -0.017634	   -0.080048	   -0.057782	   -0.137830	   -0.074804	   -0.049585	   -0.124389	    0.021466	    0.076840	    0.098306	   -0.007489	   -0.010825	   -0.018314	   -0.113562	   -0.072807	   -0.186369	   -0.121301	   -0.506729	   -0.628029	   -0.020708	   -0.016134	   -0.036842	   -0.015268	    0.007261	   -0.008007	   -0.122548	   -0.080449	   -0.202997	    0.022167	    0.031389	    0.053557	    0.031120	   -0.005233	    0.025887	   -0.093059	   -0.046508	   -0.139566	   -0.208593	   -0.571813	   -0.780406	   -0.169319	   -0.519130	   -0.688449	   -0.048657	   -0.010132	   -0.058789	   -0.083752	    0.014759	   -0.068993	   -0.040507	    0.033003	   -0.007504	    0.023267	    0.081223	    0.104489
     9.000	0	0	    0	    0.000672	   -0.006523	   -0.005851	   -0.023407	   -0.002162	   -0.025569	    0.008912	   -0.005142	    0.003770	   -0.017744	   -0.005267	   -0.023011	   -0.066831	   -0.068516	   -0.135347	   -0.059379	   -0.085962	   -0.145341	    0.068287	   -0.009071	    0.059216	   -0.002218	   -0.008314	   -0.010531	   -0.104328	   -0.089611	   -0.193939	   -0.111199	   -0.523000	   -0.634199	   -0.022051	   -0.016136	   -0.038188	   -0.012920	    0.005934	   -0.006986	   -0.110925	   -0.105277	   -0.216202	    0.004088	    0.029462	    0.033550	   -0.050519	    0.037855	   -0.012664	   -0.078981	   -0.063006	   -0.141987	   -0.199446	   -0.585426	   -0.784872	   -0.167067	   -0.518245	   -0.685312	   -0.050691	   -0.014127	   -0.064817	   -0.079500	   -0.004575	   -0.084075	   -0.027524	    0.012205	   -0.015319	    0.017776	    0.025350	    0.043127
     9.075	0	0	    0	   -0.014612	    0.009201	   -0.005411	   -0.032375	    0.006195	   -0.026180	   -0.002641	    0.006263	    0.003621	   -0.023092	   -0.004084	   -0.027176	   -0.042830	   -0.046240	   -0.089071	   -0.065487	   -0.051860	   -0.117347	    0.049620	    0.048440	    0.098060	   -0.006139	   -0.001536	   -0.007675	   -0.108511	   -0.066855	   -0.175366	   -0.085009	   -0.500189	   -0.585198	   -0.023497	   -0.014104	   -0.037601	   -0.010263	    0.015606	    0.005344	   -0.105391	   -0.071747	   -0.177138	    0.000506	    0.032762	    0.033268	   -0.036608	   -0.020786	   -0.057394	   -0.076783	   -0.043385	   -0.120168	   -0.185060	   -0.555790	   -0.740850	   -0.108764	   -0.515153	   -0.623918	   -0.050084	   -0.005168	   -0.055252	   -0.088270	    0.024192	   -0.064078	   -0.018436	    0.031655	    0.013219	   -0.019400	    0.023310	    0.003911
     9.150	0	0	    0	   -0.012557	    0.003106	   -0.009451	   -0.027236	    0.001191	   -0.026044	   -0.010426	    0.002698	   -0.007728	   -0.022807	   -0.003858	   -0.026665	   -0.033245	   -0.011315	   -0.044560	   -0.054925	   -0.033534	   -0.088460	    0.000428	    0.040685	    0.041114	   -0.006793	   -0.004026	   -0.010819	   -0.085480	   -0.048041	   -0.133521	    0.047936	   -0.292053	   -0.244117	   -0.022167	   -0.012475	   -0.034642	   -0.009903	    0.023192	    0.013289	   -0.068632	   -0.025742	   -0.094374	    0.005358	    0.017849	    0.023207	   -0.022211	   -0.052473	   -0.074683	   -0.051104	   -0.016355	   -0.067459	   -0.005428	   -0.436836	   -0.442264	    0.011501	   -0.224425	   -0.212925	   -0.048540	   -0.000841	   -0.049381	   -0.081909	    0.031262	   -0.050647	   -0.014884	    0.047206	    0.032323	   -0.042928	    0.005661	   -0.037267
     9.225	0	0	    0	    0.016425	   -0.013568	    0.002857	   -0.022898	    0.005118	   -0.017780	   -0.009373	    0.000293	   -0.009080	   -0.013260	   -0.003502	   -0.016763	   -0.018815	    0.007197	   -0.011618	   -0.046220	   -0.003116	   -0.049336	   -0.000219	    0.017866	    0.017647	    0.013650	   -0.011540	    0.002110	   -0.078153	   -0.026027	   -0.104180	   -0.028099	   -0.060598	   -0.088697	   -0.017061	   -0.008417	   -0.025478	   -0.005976	    0.023040	    0.017064	   -0.066428	   -0.004233	   -0.070660	    0.017565	    0.015628	    0.033193	   -0.027535	   -0.040544	   -0.068079	   -0.049534	    0.002572	   -0.046963	   -0.071790	   -0.083923	   -0.155713	   -0.036248	   -0.057696	   -0.093944	   -0.045360	    0.003103	   -0.042256	   -0.066461	    0.041331	   -0.025130	   -0.015407	    0.037115	    0.021709	   -0.038447	   -0.000880	   -0.039328
     9.300	0	0	    0	   -0.002417	    0.007876	    0.005459	   -0.014012	    0.010224	   -0.003788	    0.010205	   -0.007490	    0.002715	   -0.011924	   -0.000233	   -0.012156	   -0.031647	    0.024321	   -0.007326	   -0.037879	    0.004258	   -0.033621	    0.045020	   -0.005373	    0.039647	    0.007764	   -0.007853	   -0.000090	   -0.047516	   -0.024490	   -0.072006	   -0.015712	   -0.067364	   -0.083076	   -0.015340	   -0.005618	   -0.020958	   -0.011911	    0.020799	    0.008887	   -0.058445	    0.016578	   -0.041867	    0.009143	    0.024462	    0.033605	   -0.002550	   -0.061533	   -0.064082	   -0.021401	    0.000568	   -0.020833	   -0.052462	   -0.063598	   -0.116060	   -0.030401	   -0.049640	   -0.080041	   -0.042837	    0.005508	   -0.037329	   -0.052354	    0.044243	   -0.008111	   -0.011975	    0.040883	    0.028908	    0.015925	   -0.001536	    0.014389
     9.375	0	0	    0	    0.023817	   -0.034796	   -0.010979	   -0.015403	    0.011734	   -0.003669	    0.017223	    0.014088	    0.031311	   -0.013707	   -0.002787	   -0.016494	   -0.065768	   -0.023475	   -0.089243	   -0.069736	    0.017438	   -0.052298	    0.038240	    0.044784	    0.083024	    0.012950	   -0.017114	   -0.004163	   -0.062136	   -0.019397	   -0.081533	   -0.028228	   -0.062111	   -0.090338	   -0.017323	   -0.007492	   -0.024814	   -0.015236	    0.004965	   -0.010271	   -0.095127	    0.006377	   -0.088750	    0.034738	    0.030949	    0.065687	    0.029296	   -0.004748	    0.024548	   -0.031031	   -0.003378	   -0.034409	   -0.041101	   -0.070683	   -0.111784	   -0.027236	   -0.042484	   -0.069720	   -0.040316	   -0.004268	   -0.044584	   -0.070241	    0.037962	   -0.032279	   -0.020609	    0.015717	   -0.004892	    0.043873	    0.065086	    0.108959
     9.450	0	0	    0	    0.014428	   -0.014640	   -0.000212	   -0.010577	    0.008673	   -0.001904	    0.027351	    0.014272	    0.041623	   -0.013010	   -0.006654	   -0.019664	   -0.071784	   -0.060876	   -0.132660	   -0.056926	   -0.038217	   -0.095144	    0.091955	    0.033797	    0.125751	    0.010977	   -0.019460	   -0.008483	   -0.067855	   -0.030567	   -0.098422	   -0.023463	   -0.084586	   -0.108049	   -0.020566	   -0.011500	   -0.032066	   -0.018451	   -0.004371	   -0.022822	   -0.127871	   -0.056762	   -0.184634	    0.041471	    0.033629	    0.075099	    0.035986	   -0.012516	    0.023470	   -0.039376	   -0.006672	   -0.046048	   -0.055144	   -0.074887	   -0.130031	   -0.024762	   -0.049329	   -0.074091	   -0.041836	   -0.010940	   -0.052777	   -0.072948	    0.016458	   -0.056491	   -0.028871	    0.018497	   -0.010374	    0.070617	    0.092159	    0.162776
     9.525	0	0	    0	    0.013409	   -0.009754	    0.003656	   -0.021643	    0.003962	   -0.017681	    0.035990	    0.011262	    0.047252	   -0.007588	   -0.010367	   -0.017955	   -0.089159	   -0.074534	   -0.163693	   -0.070868	   -0.049430	   -0.120298	    0.079081	    0.063217	    0.142299	    0.007202	   -0.012057	   -0.004855	   -0.100843	   -0.031383	   -0.132226	   -0.051489	   -0.095864	   -0.147353	   -0.021307	   -0.020784	   -0.042091	   -0.022075	   -0.014699	   -0.036774	   -0.137437	   -0.083939	   -0.221376	    0.048460	    0.034961	    0.083421	    0.042960	   -0.019086	    0.023874	   -0.055678	   -0.011287	   -0.066965	   -0.080579	   -0.078062	   -0.158641	   -0.051005	   -0.082775	   -0.133781	   -0.036127	   -0.017558	   -0.053684	   -0.084526	    0.009914	   -0.074612	   -0.025776	    0.020599	   -0.005177	    0.083567	    0.089383	    0.172950
     9.600	0	0	    0	    0.003607	    0.026929	    0.030536	   -0.021990	   -0.005121	   -0.027111	    0.042249	    0.021017	    0.063266	    0.001207	   -0.000434	    0.000774	   -0.086757	   -0.083489	   -0.170246	   -0.079891	   -0.062889	   -0.142780	    0.076596	    0.107242	    0.183839	    0.011614	    0.002939	    0.014553	   -0.133672	   -0.059125	   -0.192798	   -0.097593	   -0.251517	   -0.349110	   -0.004355	   -0.018434	   -0.022789	   -0.020426	   -0.017661	   -0.038087	   -0.152583	   -0.106143	   -0.258726	    0.058425	    0.038731	    0.097155	    0.028490	   -0.000976	    0.027514	   -0.065943	   -0.014745	   -0.080688	   -0.162400	   -0.207091	   -0.369491	   -0.085249	   -0.285562	   -0.370811	   -0.020209	   -0.019282	   -0.039492	   -0.098754	    0.000006	   -0.098748	   -0.024729	    0.033019	    0.008291	    0.062793	    0.104290	    0.167084
     9.675	0	0	    0	    0.027619	    0.019588	    0.047207	   -0.019421	   -0.010727	   -0.030148	    0.062986	    0.017658	    0.080644	    0.008500	    0.010936	    0.019436	   -0.085245	   -0.091281	   -0.176526	   -0.078128	   -0.075420	   -0.153548	    0.114272	    0.065729	    0.180000	    0.023509	    0.010545	    0.034054	   -0.146424	   -0.065493	   -0.211917	   -0.075264	   -0.398172	   -0.473436	    0.010087	   -0.010533	   -0.000446	   -0.014103	   -0.018993	   -0.033096	   -0.151373	   -0.117724	   -0.269097	    0.067924	    0.038854	    0.106778	    0.040912	   -0.020108	    0.020804	   -0.077648	   -0.002434	   -0.080083	   -0.169363	   -0.394016	   -0.563379	   -0.087011	   -0.389628	   -0.476638	   -0.008935	   -0.019822	   -0.028757	   -0.091113	   -0.011525	   -0.102638	   -0.019362	    0.032678	    0.013316	    0.068746	    0.083789	    0.152534
     9.750	0	0	    0	    0.019958	    0.018811	    0.038769	   -0.020267	   -0.011081	   -0.031348	    0.057447	    0.023666	    0.081113	    0.001442	    0.012013	    0.013456	   -0.079698	   -0.087744	   -0.167442	   -0.084686	   -0.065051	   -0.149738	    0.097087	    0.106751	    0.203837	    0.017724	    0.011771	    0.029494	   -0.151677	   -0.073008	   -0.224684	   -0.077297	   -0.436577	   -0.513874	    0.007618	   -0.003854	    0.003763	   -0.009143	   -0.013064	   -0.022207	   -0.153111	   -0.118249	   -0.271360	    0.041939	    0.065553	    0.107492	   -0.026624	    0.046929	    0.020306	   -0.082808	   -0.003590	   -0.086397	   -0.175588	   -0.457666	   -0.633254	   -0.095827	   -0.423524	   -0.519351	   -0.014293	   -0.014916	   -0.029209	   -0.092830	   -0.010661	   -0.103492	   -0.017274	    0.037605	    0.020331	    0.017043	    0.057104	    0.074147
     9.825	0	0	    0	   -0.000220	    0.021937	    0.021717	   -0.022219	   -0.005466	   -0.027685	    0.032084	    0.024790	    0.056874	   -0.014191	   -0.002177	   -0.016368	   -0.062208	   -0.069724	   -0.131932	   -0.067835	   -0.077976	   -0.145811	    0.051197	    0.105972	    0.157169	    0.006580	    0.013251	    0.019830	   -0.129223	   -0.072725	   -0.201948	   -0.078062	   -0.438370	   -0.516431	   -0.012435	   -0.009073	   -0.021508	   -0.007028	   -0.002265	   -0.009293	   -0.129889	   -0.126818	   -0.256707	    0.028903	    0.046629	    0.075533	   -0.031584	   -0.003364	   -0.034949	   -0.082391	   -0.007289	   -0.089680	   -0.169276	   -0.475620	   -0.644896	   -0.122090	   -0.437765	   -0.559855	   -0.037412	   -0.012972	   -0.050384	   -0.086510	   -0.013656	   -0.100166	   -0.013492	    0.037155	    0.023663	   -0.023412	    0.028583	    0.005172
     9.900	0	0	    0	   -0.010739	    0.004277	   -0.006463	   -0.022173	   -0.003297	   -0.025470	    0.011784	    0.003770	    0.015554	   -0.015495	   -0.008536	   -0.024031	   -0.050656	   -0.041403	   -0.092059	   -0.058059	   -0.059412	   -0.117471	    0.031366	    0.045835	    0.077201	    0.002797	    0.004067	    0.006864	   -0.106572	   -0.050361	   -0.156933	   -0.067937	   -0.430175	   -0.498112	   -0.013235	   -0.015620	   -0.028855	   -0.007552	    0.013065	    0.005513	   -0.092217	   -0.083609	   -0.175826	    0.024079	    0.029170	    0.053249	   -0.017560	   -0.034364	   -0.051923	   -0.067558	   -0.008252	   -0.075810	   -0.152855	   -0.464772	   -0.617626	   -0.105890	   -0.444804	   -0.550694	   -0.037711	   -0.007063	   -0.044774	   -0.083284	    0.015445	   -0.067839	   -0.022403	    0.036715	    0.014312	   -0.031462	    0.013260	   -0.018202
