 [File Information]      		 [Data Line]	36
Measured Date	2024/05/27 093726
ID		Version	11.0
Name	oceane_1	[HeaderType]	11.0/11.0
Comment	
[Measurement Info.]
Holder Location	       0
Block Design	Off     
Pre.Rest Time	       0
Task Time	       0
Pos.Rest Time	       0
Loop	       0
Averaging	       1
Total Points	     839
[.INF File]
Filename	Cognitive1.INF
[Condition-1]
HV Switching	OFF
 R1 ,R2 ,R3 ,R4 ,R5 ,R6 ,R7 ,R8 
 120.00, 70.00,120.00,100.00, 90.00, 70.00,120.00,120.00
 Gain(X1,X4,X16,X64)
 R1 ,R2 ,R3 ,R4 ,R5 ,R6 ,R7 ,R8 
 1,1,1,1,1,1,1,1
[Analysis Condition]
Smoothed Type	None            
Smoothed Points	       0
Smoothed Loop	       0
Baseline Method	None            
Baseline location	
[Text Info.]
Output Mode	Continious      	Task No.		Data Type	Hb      
Time Range	    0.00	   62.85	Averaing	1
(1,3)(5,3)(5,7)(2,7)(2,4)(6,4)(6,8)(1,1)(3,3)(5,5)(7,7)(2,2)(4,4)(6,6)(8,8)(3,1)(3,5)(7,5)(7,2)(4,2)(4,6)(8,6)
         	     	     	     	    ch- 1	    ch- 1	    ch- 1	    ch- 2	    ch- 2	    ch- 2	    ch- 3	    ch- 3	    ch- 3	    ch- 4	    ch- 4	    ch- 4	    ch- 5	    ch- 5	    ch- 5	    ch- 6	    ch- 6	    ch- 6	    ch- 7	    ch- 7	    ch- 7	    ch- 8	    ch- 8	    ch- 8	    ch- 9	    ch- 9	    ch- 9	    ch-10	    ch-10	    ch-10	    ch-11	    ch-11	    ch-11	    ch-12	    ch-12	    ch-12	    ch-13	    ch-13	    ch-13	    ch-14	    ch-14	    ch-14	    ch-15	    ch-15	    ch-15	    ch-16	    ch-16	    ch-16	    ch-17	    ch-17	    ch-17	    ch-18	    ch-18	    ch-18	    ch-19	    ch-19	    ch-19	    ch-20	    ch-20	    ch-20	    ch-21	    ch-21	    ch-21	    ch-22	    ch-22	    ch-22
Time(sec)	Task	Mark	Count	    oxyHb   	  deoxyHb	  totalHb	    oxyHb   	  deoxyHb	  totalHb	    oxyHb   	  deoxyHb	  totalHb	    oxyHb   	  deoxyHb	  totalHb	    oxyHb   	  deoxyHb	  totalHb	    oxyHb   	  deoxyHb	  totalHb	    oxyHb   	  deoxyHb	  totalHb	    oxyHb   	  deoxyHb	  totalHb	    oxyHb   	  deoxyHb	  totalHb	    oxyHb   	  deoxyHb	  totalHb	    oxyHb   	  deoxyHb	  totalHb	    oxyHb   	  deoxyHb	  totalHb	    oxyHb   	  deoxyHb	  totalHb	    oxyHb   	  deoxyHb	  totalHb	    oxyHb   	  deoxyHb	  totalHb	    oxyHb   	  deoxyHb	  totalHb	    oxyHb   	  deoxyHb	  totalHb	    oxyHb   	  deoxyHb	  totalHb	    oxyHb   	  deoxyHb	  totalHb	    oxyHb   	  deoxyHb	  totalHb	    oxyHb   	  deoxyHb	  totalHb	    oxyHb   	  deoxyHb	  totalHb
     0.000	0	0Z	    0	    0.000000	    0.000000	    0.000000	    0.000000	    0.000000	    0.000000	    0.000000	    0.000000	    0.000000	    0.000000	    0.000000	    0.000000	    0.000000	    0.000000	    0.000000	    0.000000	    0.000000	    0.000000	    0.000000	    0.000000	    0.000000	    0.000000	    0.000000	    0.000000	    0.000000	    0.000000	    0.000000	    0.000000	    0.000000	    0.000000	    0.000000	    0.000000	    0.000000	    0.000000	    0.000000	    0.000000	    0.000000	    0.000000	    0.000000	    0.000000	    0.000000	    0.000000	    0.000000	    0.000000	    0.000000	    0.000000	    0.000000	    0.000000	    0.000000	    0.000000	    0.000000	    0.000000	    0.000000	    0.000000	    0.000000	    0.000000	    0.000000	    0.000000	    0.000000	    0.000000	    0.000000	    0.000000	    0.000000	    0.000000	    0.000000	    0.000000
     0.075	0	0	    0	    0.010309	   -0.014927	   -0.004618	    0.001531	   -0.003623	   -0.002093	    0.003193	   -0.001849	    0.001344	    0.005923	   -0.007082	   -0.001159	    0.011360	   -0.022024	   -0.010664	    0.007770	   -0.010630	   -0.002860	   -0.000739	   -0.078199	   -0.078938	    0.001198	   -0.007164	   -0.005966	    0.001065	   -0.002759	   -0.001695	    0.002147	   -0.005964	   -0.003817	   -0.000476	    0.000644	    0.000168	    0.000038	   -0.002204	   -0.002167	    0.004576	   -0.008064	   -0.003488	   -0.013690	   -0.028241	   -0.041930	   -0.000065	   -0.034333	   -0.034399	   -0.018941	   -0.010184	   -0.029125	    0.009654	   -0.012662	   -0.003008	   -0.000628	   -0.003158	   -0.003786	   -0.001716	   -0.000285	   -0.002001	   -0.001957	   -0.002844	   -0.004801	   -0.032499	   -0.018954	   -0.051453	   -0.039197	   -0.075888	   -0.115085
     0.150	0	0	    0	    0.011861	   -0.012253	   -0.000392	    0.005080	   -0.001351	    0.003729	    0.005909	    0.003390	    0.009299	    0.006091	   -0.003377	    0.002714	    0.015080	   -0.012834	    0.002246	    0.024045	   -0.002155	    0.021890	    0.041028	   -0.070892	   -0.029865	   -0.018250	   -0.008069	   -0.026319	    0.006763	   -0.001813	    0.004950	    0.008734	   -0.003047	    0.005687	    0.003698	    0.000892	    0.004590	    0.000500	   -0.002391	   -0.001891	    0.005832	   -0.001936	    0.003896	   -0.014793	   -0.001887	   -0.016680	    0.067248	   -0.000826	    0.066421	   -0.030295	   -0.027680	   -0.057975	   -0.000576	   -0.000640	   -0.001216	    0.005028	   -0.000524	    0.004504	    0.002779	   -0.001028	    0.001751	   -0.002463	   -0.006410	   -0.008873	   -0.050775	   -0.062244	   -0.113019	    0.066032	   -0.079527	   -0.013494
     0.225	0	0	    0	    0.003986	   -0.019774	   -0.015788	    0.006721	   -0.003773	    0.002948	    0.010250	   -0.002874	    0.007376	    0.007746	   -0.004435	    0.003311	    0.010216	   -0.004152	    0.006064	    0.024151	   -0.005237	    0.018914	    0.078165	   -0.074410	    0.003755	   -0.026430	   -0.036406	   -0.062837	    0.008832	    0.002197	    0.011029	    0.005532	    0.000825	    0.006357	    0.002941	    0.002386	    0.005327	    0.003081	   -0.002472	    0.000609	    0.007968	    0.008299	    0.016266	   -0.007160	   -0.031450	   -0.038610	    0.082898	    0.044886	    0.127783	   -0.030272	   -0.040682	   -0.070954	   -0.000549	    0.003741	    0.003192	    0.007091	   -0.003789	    0.003301	    0.002952	   -0.000088	    0.002864	   -0.003868	   -0.004259	   -0.008127	   -0.055218	   -0.081866	   -0.137084	    0.075741	   -0.006501	    0.069240
     0.300	0	0	    0	    0.004092	   -0.026213	   -0.022121	    0.001434	    0.001649	    0.003083	    0.002318	    0.005694	    0.008012	    0.008157	   -0.004125	    0.004032	    0.008871	   -0.001781	    0.007090	    0.007317	    0.003161	    0.010478	    0.054098	   -0.050316	    0.003782	   -0.026778	   -0.043653	   -0.070431	    0.010794	    0.002076	    0.012870	    0.004520	    0.000060	    0.004580	    0.002972	    0.001600	    0.004571	    0.002156	   -0.001008	    0.001149	    0.005567	    0.009158	    0.014725	   -0.019178	   -0.007756	   -0.026934	    0.125675	    0.040429	    0.166104	   -0.031184	   -0.048181	   -0.079365	    0.002279	   -0.000807	    0.001472	    0.003027	    0.001603	    0.004631	    0.002979	   -0.000700	    0.002279	   -0.002285	   -0.007255	   -0.009540	   -0.055273	   -0.089659	   -0.144932	    0.100919	    0.020720	    0.121639
     0.375	0	0	    0	    0.001988	   -0.029769	   -0.027781	    0.001521	   -0.001849	   -0.000329	    0.001604	    0.010080	    0.011684	    0.006163	   -0.001603	    0.004560	    0.009944	   -0.001192	    0.008752	    0.002066	    0.008752	    0.010817	    0.042853	   -0.028300	    0.014554	   -0.027010	   -0.047142	   -0.074152	    0.009209	    0.001470	    0.010679	   -0.012747	    0.026953	    0.014207	    0.003291	    0.000567	    0.003858	    0.002829	   -0.000372	    0.002457	    0.001987	    0.008993	    0.010980	   -0.018411	   -0.013619	   -0.032030	    0.135201	    0.034252	    0.169453	   -0.034365	   -0.049972	   -0.084336	    0.004463	   -0.003108	    0.001356	    0.008003	   -0.003356	    0.004647	    0.003654	   -0.001165	    0.002489	   -0.004227	   -0.006428	   -0.010654	   -0.060454	   -0.090419	   -0.150873	    0.089499	    0.030604	    0.120103
     0.450	0	0	    0	   -0.013044	   -0.003585	   -0.016629	    0.000536	   -0.001098	   -0.000561	   -0.002225	    0.005770	    0.003545	    0.002111	   -0.002053	    0.000058	   -0.000687	    0.011597	    0.010910	    0.013646	    0.003948	    0.017593	    0.057228	   -0.029604	    0.027624	   -0.032947	   -0.041045	   -0.073992	    0.008096	    0.001549	    0.009644	   -0.018763	    0.026805	    0.008042	    0.003679	   -0.000520	    0.003158	    0.001213	   -0.000114	    0.001099	    0.005430	    0.007572	    0.013002	   -0.027346	   -0.023267	   -0.050613	    0.075352	   -0.003997	    0.071355	   -0.024823	   -0.047711	   -0.072534	    0.006412	   -0.004542	    0.001870	    0.010138	   -0.004773	    0.005365	    0.004619	   -0.000586	    0.004033	    0.001812	   -0.010085	   -0.008273	   -0.042742	   -0.094467	   -0.137208	    0.041242	    0.008320	    0.049562
     0.525	0	0	    0	    0.004416	   -0.012102	   -0.007686	    0.006105	   -0.004783	    0.001322	    0.003574	    0.004129	    0.007703	    0.003910	   -0.002890	    0.001020	    0.000811	    0.006495	    0.007306	   -0.004758	    0.003133	   -0.001625	    0.038535	   -0.034353	    0.004182	   -0.003509	   -0.036134	   -0.039643	    0.006333	    0.000137	    0.006470	    0.013684	   -0.010155	    0.003528	    0.002221	    0.001116	    0.003337	    0.004769	   -0.000120	    0.004649	    0.004844	    0.002284	    0.007128	   -0.003595	   -0.016162	   -0.019757	    0.030861	   -0.025137	    0.005724	    0.013416	   -0.034313	   -0.020896	    0.007677	   -0.001597	    0.006080	    0.004078	   -0.000629	    0.003450	    0.003305	    0.001225	    0.004530	    0.008250	   -0.003032	    0.005219	    0.014577	   -0.063086	   -0.048508	    0.073145	   -0.031423	    0.041722
     0.600	0	0	    0	    0.018779	   -0.013449	    0.005329	    0.005629	   -0.000311	    0.005318	   -0.000305	    0.008097	    0.007792	    0.008878	   -0.007109	    0.001769	    0.016282	   -0.011189	    0.005093	   -0.008891	    0.008328	   -0.000563	    0.039688	   -0.042878	   -0.003191	    0.011907	   -0.003425	    0.008483	    0.009589	   -0.003278	    0.006311	    0.020159	   -0.009055	    0.011105	    0.001595	    0.001427	    0.003022	    0.005220	   -0.000886	    0.004334	    0.009500	   -0.005749	    0.003751	   -0.000603	    0.000850	    0.000247	   -0.003578	    0.020622	    0.017044	    0.012984	   -0.006416	    0.006569	    0.008390	    0.000543	    0.008933	   -0.001958	    0.006076	    0.004118	    0.002227	    0.000989	    0.003216	    0.009001	   -0.000828	    0.008173	    0.013338	   -0.001598	    0.011740	   -0.011149	    0.038876	    0.027727
     0.675	0	0	    0	    0.005772	    0.004881	    0.010653	    0.006454	   -0.002194	    0.004260	    0.006308	    0.002457	    0.008765	    0.004721	   -0.001850	    0.002870	    0.007839	   -0.005534	    0.002305	    0.009329	    0.003612	    0.012941	    0.019186	   -0.072266	   -0.053079	    0.003253	    0.006348	    0.009602	    0.005040	   -0.000586	    0.004454	    0.012322	    0.000708	    0.013031	    0.000067	    0.000933	    0.001000	    0.003269	    0.000872	    0.004141	    0.008561	   -0.006597	    0.001964	   -0.014466	   -0.014248	   -0.028715	    0.000144	   -0.024879	   -0.024734	   -0.014146	   -0.006019	   -0.020165	    0.005079	    0.001195	    0.006274	    0.003284	   -0.000346	    0.002938	    0.000679	    0.000089	    0.000768	    0.004157	    0.001155	    0.005312	   -0.026234	   -0.015534	   -0.041769	   -0.038533	   -0.064075	   -0.102608
     0.750	0	0	    0	   -0.009237	    0.001496	   -0.007741	    0.000240	   -0.002895	   -0.002656	    0.000695	    0.003830	    0.004525	    0.000095	   -0.001966	   -0.001871	    0.002127	    0.002943	    0.005070	    0.004719	    0.005460	    0.010179	    0.009666	   -0.047802	   -0.038136	   -0.030647	   -0.004331	   -0.034978	    0.001489	   -0.000167	    0.001323	    0.002559	   -0.007269	   -0.004711	   -0.000822	    0.000368	   -0.000454	   -0.000262	    0.001642	    0.001379	    0.004488	    0.000816	    0.005304	   -0.023098	   -0.011173	   -0.034271	    0.057104	    0.004628	    0.061732	   -0.036118	   -0.030216	   -0.066335	   -0.007788	    0.005896	   -0.001892	    0.003521	   -0.005610	   -0.002089	   -0.000747	   -0.001063	   -0.001810	   -0.005973	   -0.003028	   -0.009001	   -0.061514	   -0.056069	   -0.117582	    0.018896	   -0.088467	   -0.069571
     0.825	0	0	    0	   -0.002198	   -0.011045	   -0.013244	   -0.003635	   -0.000846	   -0.004481	   -0.002971	    0.001563	   -0.001408	   -0.000330	   -0.004082	   -0.004412	    0.008909	   -0.001213	    0.007696	    0.013304	   -0.003318	    0.009986	    0.028056	   -0.057776	   -0.029719	   -0.030584	   -0.039868	   -0.070453	    0.002077	   -0.004065	   -0.001988	   -0.002370	   -0.000215	   -0.002585	   -0.002639	    0.000770	   -0.001870	   -0.000591	    0.000479	   -0.000111	    0.001942	    0.002285	    0.004227	   -0.027931	   -0.032049	   -0.059980	    0.056182	    0.005389	    0.061572	   -0.036539	   -0.048506	   -0.085045	    0.004495	   -0.011628	   -0.007133	    0.001548	   -0.003516	   -0.001968	   -0.002248	   -0.000879	   -0.003127	   -0.006925	   -0.007264	   -0.014189	   -0.065930	   -0.083825	   -0.149755	    0.047109	   -0.024985	    0.022123
     0.900	0	0	    0	    0.005715	   -0.021052	   -0.015337	   -0.002149	   -0.003557	   -0.005705	   -0.001548	    0.004046	    0.002499	   -0.000182	   -0.005283	   -0.005466	    0.008420	    0.006530	    0.014949	    0.004511	    0.003810	    0.008321	    0.049433	   -0.043006	    0.006426	   -0.036893	   -0.042191	   -0.079084	    0.002500	   -0.003854	   -0.001354	    0.010825	   -0.013364	   -0.002539	   -0.003639	   -0.000519	   -0.004158	   -0.001342	    0.000333	   -0.001009	   -0.002040	    0.006184	    0.004144	   -0.032770	   -0.016707	   -0.049476	    0.077660	    0.055699	    0.133359	   -0.043029	   -0.051367	   -0.094397	    0.002254	   -0.012723	   -0.010469	    0.001792	   -0.003375	   -0.001582	   -0.002707	   -0.001148	   -0.003856	   -0.009145	   -0.007873	   -0.017018	   -0.073383	   -0.089433	   -0.162817	    0.068423	    0.002969	    0.071392
     0.975	0	0	    0	   -0.002216	   -0.020018	   -0.022234	   -0.005286	   -0.002599	   -0.007885	   -0.007908	    0.003906	   -0.004002	   -0.002982	   -0.004178	   -0.007160	    0.001573	    0.006797	    0.008369	   -0.006621	   -0.000119	   -0.006741	    0.015344	   -0.039857	   -0.024513	   -0.039710	   -0.050397	   -0.090107	   -0.001487	    0.000007	   -0.001480	   -0.008043	    0.007904	   -0.000139	   -0.004714	   -0.001023	   -0.005736	   -0.003242	   -0.000125	   -0.003367	   -0.008919	    0.008279	   -0.000640	   -0.043104	   -0.015355	   -0.058459	    0.075171	    0.053018	    0.128188	   -0.049194	   -0.051317	   -0.100511	    0.008171	   -0.014828	   -0.006657	    0.001073	   -0.002534	   -0.001461	   -0.004114	   -0.001103	   -0.005217	   -0.010772	   -0.008701	   -0.019474	   -0.075580	   -0.095446	   -0.171026	    0.058356	    0.010918	    0.069273
     1.050	0	0	    0	   -0.007091	   -0.022706	   -0.029797	   -0.004130	   -0.005744	   -0.009874	   -0.002576	    0.000645	   -0.001932	   -0.004243	   -0.005811	   -0.010054	    0.003755	    0.000884	    0.004639	    0.000714	   -0.000902	   -0.000188	    0.036918	   -0.060690	   -0.023772	   -0.041202	   -0.055139	   -0.096341	   -0.007535	    0.003165	   -0.004369	   -0.003883	    0.004837	    0.000954	   -0.004999	   -0.000198	   -0.005197	   -0.003567	    0.000269	   -0.003299	   -0.010355	    0.007579	   -0.002776	   -0.042321	   -0.030686	   -0.073007	    0.031303	    0.016816	    0.048119	   -0.045361	   -0.050931	   -0.096292	   -0.010527	    0.004939	   -0.005587	   -0.002224	    0.001963	   -0.000261	   -0.002113	   -0.000533	   -0.002647	   -0.011054	   -0.007402	   -0.018456	   -0.067940	   -0.095776	   -0.163715	   -0.003599	    0.005345	    0.001745
     1.125	0	0	    0	    0.006585	   -0.019411	   -0.012826	    0.002861	   -0.003346	   -0.000484	    0.005392	   -0.000730	    0.004663	    0.000279	   -0.007693	   -0.007415	    0.014852	    0.002306	    0.017158	    0.000053	    0.010327	    0.010380	    0.041987	   -0.052139	   -0.010152	   -0.004872	   -0.052323	   -0.057195	    0.001790	   -0.002044	   -0.000255	    0.004035	    0.007371	    0.011406	   -0.000994	    0.000155	   -0.000840	    0.001721	   -0.000959	    0.000762	   -0.001247	    0.006607	    0.005360	   -0.023493	   -0.009487	   -0.032980	    0.000744	    0.002616	    0.003360	   -0.008519	   -0.037946	   -0.046464	    0.001546	    0.003616	    0.005162	    0.003250	    0.001269	    0.004520	    0.000601	    0.000819	    0.001421	    0.003700	   -0.004131	   -0.000431	   -0.006287	   -0.076491	   -0.082778	    0.024148	   -0.032121	   -0.007973
     1.200	0	0	    0	    0.014786	   -0.009366	    0.005420	    0.007219	   -0.002277	    0.004942	    0.003018	    0.009599	    0.012617	    0.003371	   -0.004060	   -0.000689	    0.016376	   -0.007396	    0.008980	   -0.011159	    0.016784	    0.005625	    0.017681	   -0.024114	   -0.006433	    0.008724	   -0.017867	   -0.009143	    0.003722	    0.000464	    0.004186	    0.000563	    0.010900	    0.011463	   -0.000027	    0.001152	    0.001125	    0.004542	    0.000362	    0.004904	    0.005228	   -0.000849	    0.004380	   -0.006187	   -0.002747	   -0.008934	   -0.008737	    0.022272	    0.013535	    0.001866	   -0.002795	   -0.000929	    0.008627	   -0.001237	    0.007390	    0.007158	   -0.001937	    0.005221	    0.001737	    0.001079	    0.002816	    0.008510	    0.002785	    0.011295	    0.008821	   -0.002792	    0.006029	    0.005860	    0.025968	    0.031828
     1.275	0	0	    0	   -0.000625	    0.004476	    0.003850	    0.003034	    0.000358	    0.003392	    0.003684	    0.006611	    0.010295	    0.003482	   -0.004406	   -0.000924	    0.006351	    0.002061	    0.008412	   -0.004197	    0.008055	    0.003858	   -0.032617	   -0.032864	   -0.065481	   -0.001475	   -0.000214	   -0.001689	    0.004270	    0.000388	    0.004657	    0.001065	    0.014588	    0.015654	   -0.000582	    0.000817	    0.000236	    0.002116	    0.002237	    0.004354	    0.008994	   -0.002930	    0.006064	   -0.038073	   -0.002379	   -0.040452	   -0.032954	   -0.007886	   -0.040840	   -0.012292	   -0.000816	   -0.013108	    0.009811	   -0.001747	    0.008063	   -0.000989	    0.004081	    0.003092	   -0.000145	    0.000958	    0.000812	    0.007002	    0.003094	    0.010096	   -0.024784	   -0.002776	   -0.027560	   -0.051301	   -0.036554	   -0.087856
     1.350	0	0	    0	    0.008086	   -0.012116	   -0.004030	   -0.000861	    0.000635	   -0.000226	    0.000163	    0.006644	    0.006807	   -0.000354	   -0.003032	   -0.003386	    0.004893	    0.007127	    0.012020	    0.010909	    0.012279	    0.023189	   -0.025759	   -0.029902	   -0.055661	   -0.017999	   -0.006868	   -0.024867	    0.003305	    0.000404	    0.003708	   -0.003883	    0.004837	    0.000954	    0.000130	   -0.000334	   -0.000204	    0.000998	    0.002433	    0.003432	    0.009139	   -0.001936	    0.007202	   -0.024635	   -0.005388	   -0.030023	    0.035087	    0.016532	    0.051619	   -0.032692	   -0.023097	   -0.055789	    0.002172	   -0.003179	   -0.001007	    0.005760	   -0.009927	   -0.004167	   -0.000069	   -0.000574	   -0.000643	   -0.001313	   -0.000829	   -0.002142	   -0.055983	   -0.039224	   -0.095207	   -0.013643	   -0.066768	   -0.080412
     1.425	0	0	    0	    0.005076	   -0.015692	   -0.010615	    0.000862	   -0.000636	    0.000226	    0.002268	    0.004454	    0.006722	    0.002792	   -0.007012	   -0.004220	    0.010356	    0.004152	    0.014507	    0.006389	    0.005271	    0.011661	    0.032436	   -0.038814	   -0.006378	   -0.019936	   -0.041043	   -0.060979	    0.005632	   -0.002196	    0.003435	    0.020412	   -0.013153	    0.007258	    0.000734	   -0.000071	    0.000663	    0.001031	    0.000997	    0.002028	    0.005046	    0.003794	    0.008840	   -0.024677	   -0.025437	   -0.050113	    0.057838	    0.003327	    0.061165	   -0.029948	   -0.044144	   -0.074093	    0.005567	   -0.008974	   -0.003407	    0.004318	   -0.000482	    0.003836	    0.000300	   -0.000719	   -0.000418	   -0.003298	   -0.004160	   -0.007458	   -0.059456	   -0.074864	   -0.134321	    0.065927	   -0.019956	    0.045970
     1.500	0	0	    0	   -0.000701	   -0.010208	   -0.010908	   -0.000146	   -0.000903	   -0.001050	    0.002394	    0.002577	    0.004971	    0.000934	   -0.004048	   -0.003114	    0.003385	    0.017497	    0.020883	   -0.000176	    0.011545	    0.011369	    0.025550	   -0.029905	   -0.004354	   -0.031076	   -0.042351	   -0.073427	    0.005438	    0.001408	    0.006846	    0.007301	    0.003436	    0.010737	    0.000085	   -0.000186	   -0.000100	    0.001020	    0.000028	    0.001049	    0.000782	    0.011597	    0.012379	   -0.040441	   -0.002813	   -0.043254	    0.074971	    0.061654	    0.136625	   -0.037915	   -0.045669	   -0.083584	   -0.001661	    0.003147	    0.001486	    0.003808	    0.003425	    0.007234	   -0.000254	   -0.000602	   -0.000856	   -0.006414	   -0.005629	   -0.012043	   -0.066436	   -0.084948	   -0.151383	    0.072451	    0.020060	    0.092511
     1.575	0	0	    0	   -0.011241	   -0.012146	   -0.023386	   -0.001999	   -0.002442	   -0.004442	    0.000824	    0.000237	    0.001061	   -0.003799	   -0.000712	   -0.004511	    0.000666	    0.013751	    0.014417	    0.008881	   -0.011075	   -0.002195	    0.052058	   -0.073032	   -0.020974	   -0.040839	   -0.039891	   -0.080730	    0.004566	    0.000662	    0.005228	    0.006306	   -0.003231	    0.003075	   -0.002045	    0.000957	   -0.001088	   -0.001167	    0.000906	   -0.000262	   -0.004713	    0.010515	    0.005802	   -0.031924	   -0.011834	   -0.043757	    0.034651	    0.085194	    0.119845	   -0.041195	   -0.049222	   -0.090418	   -0.002602	   -0.000707	   -0.003309	   -0.001114	    0.004656	    0.003543	   -0.001134	   -0.000410	   -0.001543	   -0.008354	   -0.007316	   -0.015669	   -0.068468	   -0.091264	   -0.159732	    0.026171	    0.066964	    0.093135
     1.650	0	0	    0	    0.002550	   -0.022470	   -0.019919	    0.001225	   -0.005405	   -0.004180	    0.002803	   -0.000932	    0.001871	   -0.001629	   -0.004674	   -0.006302	    0.007075	    0.012915	    0.019989	    0.007512	    0.001981	    0.009493	    0.039332	   -0.043899	   -0.004567	   -0.033349	   -0.046304	   -0.079653	    0.002503	   -0.001560	    0.000943	    0.012954	   -0.010570	    0.002383	   -0.002420	    0.000139	   -0.002280	   -0.000250	    0.000030	   -0.000220	    0.000915	    0.005118	    0.006033	   -0.017405	   -0.048628	   -0.066032	    0.048090	   -0.014125	    0.033965	   -0.029149	   -0.052421	   -0.081569	    0.006369	   -0.010951	   -0.004582	    0.007299	   -0.004111	    0.003188	   -0.000117	   -0.000055	   -0.000172	   -0.003873	   -0.007099	   -0.010971	   -0.054561	   -0.089442	   -0.144003	    0.011080	   -0.032591	   -0.021511
     1.725	0	0	    0	   -0.003855	   -0.002551	   -0.006407	    0.001751	   -0.002610	   -0.000860	    0.003515	   -0.003966	   -0.000451	   -0.005023	   -0.003415	   -0.008438	    0.003817	    0.005924	    0.009740	   -0.016831	    0.009899	   -0.006932	    0.023965	   -0.028106	   -0.004141	   -0.000567	   -0.031979	   -0.032547	   -0.000520	   -0.004278	   -0.004798	    0.015138	   -0.006327	    0.008811	   -0.002109	   -0.000849	   -0.002959	   -0.000441	    0.001264	    0.000824	   -0.000881	   -0.002284	   -0.003165	   -0.010441	   -0.013385	   -0.023826	   -0.005859	    0.004978	   -0.000881	    0.001266	   -0.015626	   -0.014360	    0.003648	   -0.001100	    0.002548	   -0.000131	    0.000879	    0.000748	   -0.001367	    0.000570	   -0.000797	    0.001679	   -0.001369	    0.000310	    0.001503	   -0.032605	   -0.031102	    0.015371	    0.025360	    0.040731
     1.800	0	0	    0	    0.002843	   -0.005441	   -0.002598	    0.002176	   -0.003148	   -0.000972	    0.008846	   -0.003737	    0.005109	   -0.002173	   -0.001751	   -0.003924	    0.007906	    0.002638	    0.010544	   -0.005771	    0.008187	    0.002417	    0.011151	   -0.035593	   -0.024442	   -0.000862	   -0.001393	   -0.002255	   -0.003296	   -0.000875	   -0.004171	    0.005567	    0.002233	    0.007800	   -0.002233	    0.000184	   -0.002049	   -0.001233	    0.001383	    0.000150	   -0.003574	    0.000077	   -0.003497	   -0.025753	   -0.000676	   -0.026429	   -0.049356	    0.018547	   -0.030809	   -0.010971	    0.002620	   -0.008351	   -0.002107	    0.004710	    0.002602	   -0.002348	    0.002534	    0.000186	   -0.003008	    0.001811	   -0.001197	    0.000339	    0.001035	    0.001374	   -0.018350	    0.002235	   -0.016116	   -0.067357	    0.015797	   -0.051560
     1.875	0	0	    0	   -0.010604	    0.003240	   -0.007364	   -0.000330	   -0.003033	   -0.003363	    0.000211	   -0.000278	   -0.000067	   -0.006224	    0.001143	   -0.005080	   -0.000123	    0.002637	    0.002514	    0.004940	    0.004262	    0.009202	   -0.024378	   -0.059123	   -0.083500	   -0.016523	    0.002041	   -0.014482	   -0.005152	   -0.000390	   -0.005543	    0.010121	   -0.013783	   -0.003662	   -0.001957	   -0.001381	   -0.003338	   -0.002799	    0.001760	   -0.001039	   -0.004509	    0.001798	   -0.002711	   -0.044380	   -0.010966	   -0.055347	   -0.017806	   -0.015313	   -0.033119	   -0.036222	   -0.014638	   -0.050861	   -0.004895	   -0.004214	   -0.009109	   -0.000281	   -0.004836	   -0.005117	   -0.004955	    0.000513	   -0.004442	   -0.008241	    0.003271	   -0.004970	   -0.055140	   -0.020805	   -0.075945	   -0.061165	   -0.076702	   -0.137868
     1.950	0	0	    0	    0.003079	   -0.021243	   -0.018164	   -0.003388	   -0.001391	   -0.004780	   -0.000838	   -0.000248	   -0.001086	   -0.003204	   -0.003896	   -0.007100	    0.003103	    0.002902	    0.006005	    0.003795	    0.004721	    0.008517	    0.018639	   -0.051399	   -0.032761	   -0.040631	   -0.024065	   -0.064696	   -0.005703	   -0.000626	   -0.006329	    0.003038	   -0.008603	   -0.005565	   -0.002336	   -0.000377	   -0.002713	   -0.004473	   -0.000143	   -0.004617	   -0.007416	    0.002000	   -0.005416	   -0.035795	   -0.015494	   -0.051289	    0.038842	    0.001105	    0.039948	   -0.045483	   -0.040987	   -0.086471	   -0.004871	   -0.010550	   -0.015421	    0.007659	   -0.011009	   -0.003350	   -0.002939	   -0.000460	   -0.003400	   -0.012031	   -0.006017	   -0.018048	   -0.072099	   -0.074157	   -0.146257	    0.038678	   -0.051622	   -0.012944
     2.025	0	0	    0	   -0.013087	   -0.008940	   -0.022027	    0.001468	    0.000071	    0.001539	    0.002438	    0.004673	    0.007110	   -0.002265	   -0.003058	   -0.005323	    0.007360	    0.009865	    0.017225	    0.020976	   -0.007024	    0.013952	    0.030914	   -0.037053	   -0.006139	   -0.030714	   -0.046620	   -0.077334	    0.007668	   -0.002841	    0.004827	    0.018348	   -0.010182	    0.008166	    0.000228	    0.001395	    0.001623	   -0.001055	   -0.000424	   -0.001479	    0.001406	    0.006884	    0.008290	   -0.026219	   -0.018385	   -0.044604	    0.054548	    0.059916	    0.114463	   -0.032207	   -0.050169	   -0.082376	    0.012986	   -0.023318	   -0.010332	    0.007866	   -0.004059	    0.003807	    0.000629	    0.000007	    0.000636	   -0.006523	   -0.006867	   -0.013390	   -0.065573	   -0.082273	   -0.147847	    0.073529	    0.019118	    0.092647
     2.100	0	0	    0	   -0.002161	   -0.024534	   -0.026695	    0.006827	   -0.007416	   -0.000590	    0.011657	   -0.004202	    0.007455	    0.000504	   -0.000637	   -0.000133	    0.010553	    0.006556	    0.017109	    0.014428	   -0.009503	    0.004925	    0.073111	   -0.068739	    0.004373	   -0.031437	   -0.041178	   -0.072615	    0.009321	   -0.001081	    0.008240	    0.017626	   -0.006175	    0.011451	    0.002412	    0.001010	    0.003422	    0.001463	   -0.000144	    0.001319	    0.000796	    0.008546	    0.009341	   -0.023936	   -0.016315	   -0.040251	    0.114450	    0.048086	    0.162536	   -0.031321	   -0.052212	   -0.083534	    0.011310	   -0.008149	    0.003161	    0.011327	   -0.001315	    0.010012	    0.002764	   -0.000317	    0.002447	   -0.002393	   -0.007020	   -0.009413	   -0.062676	   -0.087637	   -0.150314	    0.093413	    0.035581	    0.128994
     2.175	0	0	    0	   -0.014438	   -0.007231	   -0.021669	    0.001539	   -0.001276	    0.000263	    0.005524	    0.001711	    0.007236	    0.003808	   -0.003790	    0.000018	    0.006137	    0.010769	    0.016906	    0.000714	   -0.000902	   -0.000188	    0.027997	   -0.024629	    0.003368	   -0.028479	   -0.045997	   -0.074476	    0.009950	   -0.000063	    0.009887	    0.005455	    0.005365	    0.010821	    0.002398	    0.000670	    0.003068	    0.002105	    0.000437	    0.002542	    0.000966	    0.007219	    0.008185	   -0.030938	   -0.005983	   -0.036921	    0.085490	    0.073494	    0.158984	   -0.032207	   -0.050169	   -0.082376	    0.007620	   -0.006119	    0.001501	    0.007512	    0.000537	    0.008048	    0.002894	    0.000332	    0.003225	   -0.002725	   -0.005308	   -0.008033	   -0.062301	   -0.087543	   -0.149844	    0.064505	    0.071370	    0.135875
     2.250	0	0	    0	    0.004524	   -0.023159	   -0.018635	    0.001071	   -0.002193	   -0.001122	    0.000029	    0.003811	    0.003840	    0.004687	   -0.005724	   -0.001037	    0.010257	    0.006845	    0.017102	    0.004816	   -0.000376	    0.004440	    0.056655	   -0.046412	    0.010243	   -0.030192	   -0.044529	   -0.074721	    0.004180	    0.003644	    0.007824	   -0.008189	    0.020443	    0.012253	    0.001143	    0.000918	    0.002061	    0.001085	    0.000841	    0.001926	   -0.001822	    0.008948	    0.007126	   -0.037885	   -0.012806	   -0.050691	    0.045406	    0.022379	    0.067785	   -0.027898	   -0.049263	   -0.077161	    0.008925	   -0.005164	    0.003761	    0.007964	   -0.000132	    0.007832	    0.003944	   -0.000079	    0.003865	   -0.001084	   -0.007114	   -0.008198	   -0.051093	   -0.092975	   -0.144068	    0.033979	    0.024679	    0.058657
     2.325	0	0	    0	    0.005396	   -0.021535	   -0.016139	    0.002799	   -0.001333	    0.001466	   -0.001094	    0.008210	    0.007116	    0.001288	   -0.003474	   -0.002187	    0.009082	    0.012934	    0.022016	   -0.005195	    0.020849	    0.015653	    0.016258	   -0.006760	    0.009498	   -0.007050	   -0.045227	   -0.052277	    0.004659	   -0.000099	    0.004560	   -0.002352	    0.010647	    0.008295	    0.001129	    0.001277	    0.002406	    0.003161	    0.000717	    0.003878	   -0.001319	    0.010555	    0.009237	   -0.008116	   -0.005545	   -0.013661	   -0.001098	    0.022206	    0.021108	    0.000313	   -0.040780	   -0.040467	    0.011501	   -0.007931	    0.003570	    0.004519	    0.003387	    0.007906	    0.003288	    0.000680	    0.003968	    0.005815	   -0.001658	    0.004157	   -0.005152	   -0.066498	   -0.071650	    0.046326	    0.000757	    0.047083
     2.400	0	0	    0	   -0.005525	   -0.007722	   -0.013247	    0.004348	   -0.002391	    0.001957	    0.002411	   -0.000012	    0.002398	   -0.001885	   -0.000484	   -0.002369	    0.004913	    0.007720	    0.012633	   -0.012608	    0.013878	    0.001270	    0.031208	   -0.032173	   -0.000965	    0.008988	   -0.007461	    0.001527	    0.003596	    0.000678	    0.004274	    0.014040	    0.000478	    0.014518	    0.001502	    0.000653	    0.002155	    0.001611	    0.002964	    0.004575	    0.002717	    0.002876	    0.005593	   -0.009962	    0.018433	    0.008471	   -0.004726	    0.030759	    0.026032	    0.004565	    0.005333	    0.009898	    0.008308	    0.002739	    0.011047	    0.001789	    0.005571	    0.007360	    0.003106	    0.000602	    0.003709	    0.008285	    0.003275	    0.011561	    0.010551	    0.001148	    0.011699	    0.005780	    0.041660	    0.047441
     2.475	0	0	    0	   -0.005843	    0.003633	   -0.002210	    0.004819	   -0.001695	    0.003124	    0.009587	   -0.007252	    0.002335	    0.004530	   -0.005526	   -0.000996	    0.006494	    0.000573	    0.007066	    0.009099	   -0.000851	    0.008249	    0.006525	   -0.053685	   -0.047159	    0.000517	    0.004908	    0.005425	    0.005629	   -0.002198	    0.003431	    0.013164	   -0.003405	    0.009758	    0.000516	    0.001148	    0.001664	    0.002043	    0.000718	    0.002762	    0.005803	   -0.001757	    0.004045	   -0.019930	   -0.011870	   -0.031799	   -0.029032	    0.007097	   -0.021936	   -0.012490	    0.003581	   -0.008909	   -0.000266	    0.005476	    0.005210	   -0.002868	    0.005637	    0.002769	    0.001417	    0.000251	    0.001667	    0.005586	    0.001956	    0.007542	   -0.026589	   -0.002562	   -0.029152	   -0.038002	   -0.036531	   -0.074534
     2.550	0	0	    0	    0.004486	   -0.005674	   -0.001188	   -0.001760	    0.002169	    0.000410	   -0.001209	    0.003627	    0.002418	    0.002226	   -0.003839	   -0.001614	    0.020811	   -0.005102	    0.015709	    0.003455	    0.011850	    0.015305	   -0.000222	   -0.041690	   -0.041912	   -0.019681	    0.000285	   -0.019396	    0.005306	   -0.002933	    0.002373	   -0.003747	    0.012628	    0.008882	   -0.000816	    0.001071	    0.000256	    0.000962	    0.000578	    0.001540	    0.005229	    0.000725	    0.005954	   -0.035350	    0.011767	   -0.023582	    0.041497	    0.018002	    0.059500	   -0.030650	   -0.024081	   -0.054731	    0.002236	    0.000278	    0.002513	    0.000564	    0.001335	    0.001899	   -0.000001	   -0.000401	   -0.000402	   -0.003518	   -0.002314	   -0.005832	   -0.061528	   -0.047059	   -0.108587	    0.047920	   -0.060044	   -0.012124
     2.625	0	0	    0	   -0.006853	   -0.013258	   -0.020111	   -0.000690	   -0.002823	   -0.003514	    0.005363	   -0.009675	   -0.004312	   -0.002015	   -0.004794	   -0.006809	    0.003091	    0.011344	    0.014436	    0.006559	   -0.004326	    0.002233	    0.053298	   -0.068390	   -0.015091	   -0.033943	   -0.041135	   -0.075078	    0.004761	   -0.002853	    0.001908	    0.007065	   -0.002833	    0.004233	   -0.003498	    0.001172	   -0.002326	   -0.001026	    0.000722	   -0.000304	   -0.000208	    0.007636	    0.007428	   -0.032157	   -0.019517	   -0.051674	    0.046603	    0.054894	    0.101498	   -0.040679	   -0.044824	   -0.085503	    0.005380	   -0.008304	   -0.002924	    0.005973	   -0.003779	    0.002195	   -0.000839	   -0.001077	   -0.001916	   -0.007479	   -0.006906	   -0.014385	   -0.068243	   -0.084154	   -0.152397	    0.053031	    0.018844	    0.071875
     2.700	0	0	    0	   -0.001391	   -0.027271	   -0.028662	   -0.006461	    0.000126	   -0.006335	   -0.008740	    0.004520	   -0.004220	   -0.003856	   -0.002667	   -0.006523	    0.003542	    0.010135	    0.013677	   -0.019969	    0.017438	   -0.002531	    0.000947	   -0.017406	   -0.016458	   -0.036446	   -0.052207	   -0.088653	    0.001097	   -0.002297	   -0.001200	    0.000000	    0.000000	    0.000000	   -0.004056	    0.000498	   -0.003557	   -0.001453	   -0.000713	   -0.002165	   -0.002889	    0.004703	    0.001814	   -0.042570	   -0.005012	   -0.047581	    0.077740	    0.057730	    0.135469	   -0.041371	   -0.057702	   -0.099073	    0.009328	   -0.017230	   -0.007902	    0.002482	   -0.002619	   -0.000137	   -0.001827	   -0.000790	   -0.002617	   -0.008958	   -0.008254	   -0.017213	   -0.071152	   -0.092898	   -0.164050	    0.067100	    0.024005	    0.091105
     2.775	0	0	    0	   -0.018423	   -0.012735	   -0.031157	   -0.005859	   -0.001070	   -0.006929	   -0.000790	   -0.001586	   -0.002375	   -0.005672	   -0.002593	   -0.008266	   -0.007818	    0.020639	    0.012821	    0.000239	   -0.009550	   -0.009311	    0.036204	   -0.053444	   -0.017240	   -0.046357	   -0.046625	   -0.092982	   -0.001374	   -0.000280	   -0.001654	    0.012909	   -0.014900	   -0.001992	   -0.003963	    0.000281	   -0.003682	   -0.004628	    0.001715	   -0.002913	   -0.010023	    0.009751	   -0.000272	   -0.038466	   -0.017571	   -0.056037	    0.055777	    0.077810	    0.133587	   -0.048782	   -0.052823	   -0.101605	   -0.000446	   -0.003864	   -0.004310	    0.000785	    0.002291	    0.003076	   -0.002365	   -0.000934	   -0.003299	   -0.010697	   -0.007610	   -0.018308	   -0.078612	   -0.091562	   -0.170174	    0.044920	    0.040529	    0.085449
     2.850	0	0	    0	   -0.022694	   -0.007332	   -0.030026	   -0.007154	   -0.001805	   -0.008959	   -0.005392	    0.000345	   -0.005047	   -0.009195	   -0.000752	   -0.009947	   -0.004614	    0.017305	    0.012691	   -0.002324	    0.003865	    0.001540	    0.027994	   -0.044929	   -0.016934	   -0.046238	   -0.048779	   -0.095016	   -0.005027	   -0.000444	   -0.005471	   -0.003290	   -0.006751	   -0.010041	   -0.002374	   -0.001135	   -0.003509	   -0.005098	    0.001325	   -0.003773	   -0.010779	    0.010565	   -0.000213	   -0.053994	   -0.019695	   -0.073689	    0.039133	    0.002621	    0.041754	   -0.040699	   -0.052607	   -0.093305	    0.000362	   -0.012199	   -0.011837	   -0.000203	   -0.000471	   -0.000674	    0.000188	   -0.000823	   -0.000635	   -0.007881	   -0.007524	   -0.015405	   -0.061282	   -0.096327	   -0.157609	    0.002542	    0.003871	    0.006413
     2.925	0	0	    0	    0.013296	   -0.025154	   -0.011858	    0.005465	   -0.003130	    0.002335	    0.005571	    0.001211	    0.006782	    0.000797	   -0.006728	   -0.005931	    0.007688	    0.011386	    0.019074	    0.004955	    0.001430	    0.006385	    0.039793	   -0.039142	    0.000651	   -0.003147	   -0.050894	   -0.054041	    0.002347	   -0.001889	    0.000458	    0.021924	   -0.009344	    0.012580	    0.001012	    0.000222	    0.001234	    0.000941	   -0.000069	    0.000872	    0.002943	    0.004206	    0.007149	   -0.001898	   -0.008641	   -0.010539	    0.007349	    0.017353	    0.024702	    0.006175	   -0.037622	   -0.031448	    0.002874	    0.004423	    0.007297	    0.005689	    0.003975	    0.009664	    0.003012	    0.000387	    0.003399	    0.008232	   -0.003622	    0.004610	   -0.000695	   -0.062734	   -0.063429	    0.034718	   -0.004739	    0.029979
     3.000	0	0	    0	    0.015581	   -0.023457	   -0.007876	    0.007585	   -0.002717	    0.004868	    0.002211	    0.004963	    0.007174	    0.004479	   -0.004022	    0.000457	    0.015911	    0.002326	    0.018237	    0.000297	    0.009106	    0.009403	    0.023685	   -0.031088	   -0.007403	    0.015330	   -0.022267	   -0.006937	    0.009404	   -0.003916	    0.005488	    0.021532	   -0.011042	    0.010491	    0.004383	   -0.000732	    0.003651	    0.003980	    0.000975	    0.004955	    0.008522	    0.003777	    0.012299	    0.001474	    0.007823	    0.009297	   -0.003794	    0.025462	    0.021668	    0.002391	   -0.003021	   -0.000631	    0.012090	    0.000501	    0.012591	    0.007157	    0.002258	    0.009415	    0.005749	   -0.000222	    0.005527	    0.013965	    0.002564	    0.016529	    0.003353	   -0.006907	   -0.003554	   -0.007651	    0.006969	   -0.000682
     3.075	0	0	    0	   -0.005045	    0.008199	    0.003153	    0.008659	   -0.001437	    0.007222	    0.012684	    0.001063	    0.013747	    0.004663	   -0.000743	    0.003920	    0.007222	    0.011998	    0.019220	    0.015195	    0.007007	    0.022202	    0.004181	   -0.036553	   -0.032372	    0.001384	   -0.001438	   -0.000053	    0.011457	   -0.002650	    0.008807	    0.019867	   -0.001858	    0.018008	    0.004347	    0.001294	    0.005641	    0.005181	    0.001466	    0.006648	    0.013982	    0.003392	    0.017375	   -0.004969	   -0.000230	   -0.005199	    0.016443	    0.004051	    0.020494	   -0.006918	   -0.012553	   -0.019471	    0.012554	   -0.002159	    0.010395	   -0.000172	    0.009603	    0.009432	    0.006099	   -0.000410	    0.005689	    0.011747	    0.004117	    0.015864	   -0.014890	   -0.016397	   -0.031287	    0.004271	   -0.035504	   -0.031233
     3.150	0	0	    0	    0.004781	   -0.004220	    0.000561	    0.005521	    0.000025	    0.005546	    0.002268	    0.004454	    0.006722	    0.005461	   -0.002994	    0.002467	    0.011074	    0.007733	    0.018807	    0.014493	    0.007926	    0.022418	    0.025513	   -0.040571	   -0.015058	   -0.016405	   -0.015315	   -0.031720	    0.014646	   -0.003475	    0.011171	    0.012044	    0.009467	    0.021511	    0.004860	    0.001150	    0.006009	    0.004260	    0.000533	    0.004793	    0.013538	    0.003005	    0.016543	   -0.017292	    0.002271	   -0.015020	    0.059526	    0.014980	    0.074507	   -0.017363	   -0.035022	   -0.052385	    0.011597	   -0.002517	    0.009080	    0.006053	    0.003547	    0.009601	    0.005130	   -0.000788	    0.004342	    0.004544	   -0.003099	    0.001445	   -0.043689	   -0.061355	   -0.105044	    0.061762	   -0.029658	    0.032104
     3.225	0	0	    0	    0.002664	   -0.013540	   -0.010877	    0.004394	   -0.000930	    0.003464	    0.006634	   -0.002277	    0.004357	    0.006583	   -0.004205	    0.002378	    0.012429	    0.007464	    0.019893	    0.011214	    0.007964	    0.019178	    0.043505	   -0.024875	    0.018631	   -0.019124	   -0.039230	   -0.058353	    0.010934	   -0.000085	    0.010849	    0.024042	   -0.013892	    0.010150	    0.004476	    0.000662	    0.005138	    0.004151	    0.000848	    0.004999	    0.006239	    0.012689	    0.018928	   -0.021082	   -0.014255	   -0.035337	    0.070636	    0.045854	    0.116490	   -0.026285	   -0.039457	   -0.065742	   -0.003648	    0.010110	    0.006462	    0.009898	    0.000066	    0.009965	    0.005347	   -0.000971	    0.004376	    0.001984	   -0.004174	   -0.002190	   -0.051653	   -0.076917	   -0.128570	    0.092334	    0.028514	    0.120847
     3.300	0	0	    0	   -0.009363	   -0.010983	   -0.020346	    0.005706	   -0.003673	    0.002033	    0.007559	   -0.001695	    0.005865	    0.000353	   -0.000243	    0.000110	    0.007078	    0.014146	    0.021224	    0.015651	    0.001558	    0.017209	    0.066948	   -0.059686	    0.007262	   -0.028627	   -0.041315	   -0.069942	    0.011305	   -0.000814	    0.010491	    0.009064	    0.010662	    0.019726	    0.001752	    0.000737	    0.002488	    0.003930	    0.000736	    0.004667	    0.005590	    0.008415	    0.014004	   -0.017779	   -0.014633	   -0.032412	    0.092211	    0.064908	    0.157118	   -0.028551	   -0.048016	   -0.076567	    0.004578	   -0.000731	    0.003846	    0.006437	    0.002302	    0.008739	    0.005325	   -0.001915	    0.003410	    0.000943	   -0.006418	   -0.005474	   -0.053783	   -0.087223	   -0.141006	    0.109121	    0.026842	    0.135963
     3.375	0	0	    0	   -0.017268	   -0.005414	   -0.022682	    0.004299	   -0.003845	    0.000454	    0.001417	    0.005082	    0.006499	    0.002387	   -0.001582	    0.000805	    0.001561	    0.015915	    0.017476	    0.002445	    0.006372	    0.008817	    0.055156	   -0.042708	    0.012449	   -0.033972	   -0.042152	   -0.076124	    0.008553	   -0.000020	    0.008533	    0.009795	   -0.000884	    0.008910	    0.000550	    0.001541	    0.002091	    0.002465	    0.001388	    0.003853	    0.000922	    0.009567	    0.010488	   -0.020295	   -0.010966	   -0.031261	    0.110331	    0.065871	    0.176202	   -0.033948	   -0.048887	   -0.082835	    0.002089	   -0.000131	    0.001958	    0.001906	    0.006303	    0.008208	    0.004713	   -0.001877	    0.002836	   -0.000642	   -0.006579	   -0.007221	   -0.057720	   -0.089038	   -0.146759	    0.094961	    0.063718	    0.158678
     3.450	0	0	    0	   -0.011805	   -0.011446	   -0.023251	   -0.004681	    0.003033	   -0.001648	   -0.008120	    0.011391	    0.003271	   -0.003127	    0.000679	   -0.002447	    0.000045	    0.015886	    0.015931	   -0.009828	    0.013165	    0.003337	    0.026616	   -0.013644	    0.012972	   -0.032371	   -0.049282	   -0.081653	    0.008223	   -0.000764	    0.007459	    0.005532	    0.000825	    0.006357	    0.001041	    0.000686	    0.001727	    0.002704	    0.000387	    0.003091	    0.003863	    0.004218	    0.008081	   -0.043695	    0.000764	   -0.042931	    0.044392	    0.099389	    0.143781	   -0.031523	   -0.053384	   -0.084906	    0.007714	   -0.002681	    0.005033	    0.007026	    0.001539	    0.008565	    0.005131	   -0.001891	    0.003240	   -0.000695	   -0.007531	   -0.008227	   -0.056246	   -0.095253	   -0.151500	    0.076041	    0.049279	    0.125320
     3.525	0	0	    0	    0.002216	   -0.022939	   -0.020722	    0.000256	   -0.004354	   -0.004098	    0.000800	   -0.000129	    0.000672	    0.001841	   -0.005605	   -0.003764	    0.010601	    0.008350	    0.018951	   -0.002646	    0.013664	    0.011018	    0.048426	   -0.047396	    0.001030	   -0.025255	   -0.051811	   -0.077066	    0.007922	   -0.005181	    0.002741	    0.009111	   -0.011564	   -0.002453	    0.000818	   -0.000297	    0.000521	    0.003573	   -0.000804	    0.002769	    0.008186	    0.002118	    0.010304	   -0.011744	   -0.036508	   -0.048252	    0.065993	   -0.001592	    0.064401	   -0.013113	   -0.057207	   -0.070320	    0.018608	   -0.019929	   -0.001321	    0.007638	   -0.002929	    0.004708	    0.005056	   -0.001363	    0.003693	    0.003955	   -0.008078	   -0.004122	   -0.037405	   -0.093794	   -0.131199	    0.044806	   -0.025661	    0.019145
     3.600	0	0	    0	    0.011349	   -0.026353	   -0.015004	   -0.003215	    0.001643	   -0.001573	   -0.011480	    0.015148	    0.003667	    0.000279	   -0.005056	   -0.004777	    0.010839	    0.004133	    0.014972	   -0.018181	    0.020821	    0.002640	    0.001745	    0.004693	    0.006438	    0.008834	   -0.040491	   -0.031657	    0.004621	   -0.006979	   -0.002358	   -0.018255	    0.023922	    0.005667	    0.001022	   -0.000317	    0.000704	    0.003722	    0.001599	    0.005321	    0.005435	    0.000647	    0.006082	   -0.008244	   -0.002322	   -0.010566	    0.023648	    0.001469	    0.025116	    0.012687	   -0.023658	   -0.010971	    0.015461	   -0.012935	    0.002525	    0.003593	    0.001165	    0.004758	    0.004088	   -0.000837	    0.003250	    0.008461	   -0.000992	    0.007469	    0.017277	   -0.040339	   -0.023063	    0.056846	    0.015090	    0.071936
     3.675	0	0	    0	    0.010437	   -0.016917	   -0.006480	    0.003635	   -0.000850	    0.002785	   -0.000211	    0.004963	    0.004752	    0.001964	   -0.005352	   -0.003388	    0.013393	    0.000240	    0.013633	   -0.003203	    0.013499	    0.010296	    0.018470	   -0.029781	   -0.011311	    0.007124	   -0.000220	    0.006904	    0.004983	   -0.005719	   -0.000736	    0.008368	    0.005634	    0.014002	   -0.000121	    0.001372	    0.001251	    0.002770	    0.001202	    0.003972	    0.007736	   -0.002994	    0.004741	   -0.010332	    0.000713	   -0.009619	   -0.014900	    0.012836	   -0.002065	    0.004023	    0.001048	    0.005071	    0.016817	   -0.011123	    0.005694	    0.001817	    0.003451	    0.005267	    0.002777	   -0.000377	    0.002401	    0.007268	    0.000775	    0.008043	    0.002027	   -0.001825	    0.000202	   -0.025835	    0.007604	   -0.018230
     3.750	0	0	    0	    0.001155	   -0.001454	   -0.000299	    0.001992	   -0.003153	   -0.001161	    0.002451	   -0.002217	    0.000233	    0.000909	   -0.002586	   -0.001677	    0.010985	    0.002624	    0.013609	    0.014232	    0.000389	    0.014621	   -0.003474	   -0.066814	   -0.070288	   -0.003382	   -0.000979	   -0.004361	    0.000570	   -0.001913	   -0.001342	    0.010909	   -0.003209	    0.007700	   -0.000496	    0.000631	    0.000135	    0.001324	    0.001134	    0.002458	    0.001978	    0.005103	    0.007080	   -0.023835	   -0.008012	   -0.031847	    0.014112	   -0.018129	   -0.004017	   -0.025144	   -0.011776	   -0.036920	    0.018414	   -0.013021	    0.005393	    0.003970	   -0.000863	    0.003107	    0.001322	   -0.001417	   -0.000095	    0.000447	    0.000672	    0.001119	   -0.038005	   -0.024665	   -0.062670	   -0.025125	   -0.078682	   -0.103807
     3.825	0	0	    0	   -0.012749	   -0.003096	   -0.015845	   -0.004734	    0.000105	   -0.004629	   -0.008740	    0.004520	   -0.004220	   -0.001569	   -0.003329	   -0.004898	    0.001432	    0.008898	    0.010329	    0.004910	    0.010002	    0.014912	    0.021864	   -0.048375	   -0.026512	   -0.039934	   -0.018272	   -0.058205	   -0.000832	   -0.002727	   -0.003559	   -0.007533	    0.011513	    0.003980	    0.001199	   -0.001014	    0.000185	    0.000252	   -0.000885	   -0.000633	   -0.000935	    0.005265	    0.004330	   -0.025566	   -0.014159	   -0.039725	    0.052026	    0.005770	    0.057796	   -0.042464	   -0.037524	   -0.079988	   -0.007337	    0.004339	   -0.002999	    0.001490	    0.002254	    0.003743	    0.002099	   -0.002414	   -0.000315	   -0.007007	   -0.004165	   -0.011172	   -0.061341	   -0.073431	   -0.134771	    0.056500	   -0.048458	    0.008042
     3.900	0	0	    0	   -0.003938	   -0.015095	   -0.019033	    0.005497	   -0.004026	    0.001471	    0.003763	    0.003477	    0.007240	    0.001479	   -0.003715	   -0.002236	    0.011207	    0.007761	    0.018968	    0.012217	   -0.000068	    0.012149	    0.072428	   -0.061921	    0.010507	   -0.026199	   -0.045733	   -0.071932	    0.009036	   -0.003198	    0.005838	    0.024154	   -0.023662	    0.000492	    0.003896	    0.001413	    0.005309	    0.001616	   -0.000844	    0.000772	    0.005590	    0.008415	    0.014004	   -0.018257	   -0.019341	   -0.037598	    0.081753	    0.065941	    0.147694	   -0.031381	   -0.047135	   -0.078515	    0.006756	   -0.010528	   -0.003772	    0.004049	    0.003576	    0.007625	    0.005601	   -0.001824	    0.003777	   -0.000588	   -0.007766	   -0.008354	   -0.053347	   -0.087693	   -0.141039	    0.090157	    0.021117	    0.111274
     3.975	0	0	    0	    0.038346	   -0.117743	   -0.079397	    0.005731	   -0.002791	    0.002941	    0.007709	    0.000738	    0.008447	    0.013428	   -0.025918	   -0.012489	    0.024067	   -0.052756	   -0.028690	    0.012594	   -0.001491	    0.011103	    0.072637	   -0.049679	    0.022959	   -0.006950	   -0.091224	   -0.098175	    0.015453	   -0.005829	    0.009624	    0.016913	   -0.012470	    0.004443	    0.006306	    0.000448	    0.006755	    0.002418	   -0.007589	   -0.005171	    0.014865	   -0.004397	    0.010468	   -0.011123	   -0.019963	   -0.031085	    0.104657	    0.063906	    0.168563	   -0.020317	   -0.060336	   -0.080652	    0.034033	   -0.048304	   -0.014271	    0.012253	   -0.002975	    0.009277	    0.008658	   -0.002563	    0.006095	    0.005120	   -0.014098	   -0.008978	   -0.044573	   -0.099648	   -0.144221	    0.121984	    0.005961	    0.127945
     4.050	0	0	    0	   -0.005956	   -0.013501	   -0.019457	    0.007073	   -0.002735	    0.004338	    0.008653	    0.001711	    0.010364	    0.006058	   -0.002922	    0.003136	    0.004152	    0.017199	    0.021351	    0.016239	    0.007561	    0.023799	    0.057651	   -0.026521	    0.031130	   -0.022569	   -0.045511	   -0.068079	    0.013338	   -0.002023	    0.011316	    0.006560	    0.003018	    0.009578	    0.006460	    0.000163	    0.006623	    0.004854	   -0.000418	    0.004436	    0.013326	    0.005427	    0.018753	   -0.001373	   -0.035142	   -0.036515	    0.092342	   -0.013096	    0.079246	   -0.008726	   -0.053347	   -0.062072	    0.008925	   -0.005164	    0.003761	    0.012877	   -0.004072	    0.008805	    0.009664	   -0.001244	    0.008420	    0.008990	   -0.006442	    0.002547	   -0.026900	   -0.090080	   -0.116980	    0.059412	   -0.024293	    0.035119
     4.125	0	0	    0	   -0.001449	   -0.001903	   -0.003353	    0.013100	   -0.004994	    0.008106	    0.003618	    0.006237	    0.009855	    0.003796	   -0.000268	    0.003528	    0.012426	    0.004709	    0.017135	   -0.004689	    0.018245	    0.013556	    0.056002	   -0.022577	    0.033425	    0.009579	   -0.029166	   -0.019587	    0.011185	   -0.002533	    0.008652	    0.017957	   -0.008889	    0.009068	    0.006210	   -0.000073	    0.006137	    0.007833	   -0.000258	    0.007576	    0.015716	    0.000784	    0.016500	    0.015748	   -0.009220	    0.006528	    0.046192	   -0.000812	    0.045381	    0.024360	   -0.019405	    0.004955	    0.011362	   -0.001646	    0.009717	    0.008936	   -0.000841	    0.008096	    0.009406	   -0.001947	    0.007459	    0.017145	   -0.001017	    0.016128	    0.035698	   -0.042122	   -0.006424	    0.086998	    0.007803	    0.094801
     4.200	0	0	    0	    0.000586	    0.002008	    0.002594	    0.009966	   -0.002628	    0.007338	    0.007562	    0.000895	    0.008456	    0.005137	   -0.000928	    0.004209	    0.002941	    0.013479	    0.016420	   -0.007004	    0.019173	    0.012169	    0.024867	   -0.021029	    0.003838	    0.013402	    0.001668	    0.015071	    0.013538	   -0.004998	    0.008540	    0.015841	   -0.002861	    0.012980	    0.006216	    0.000301	    0.006517	    0.007724	    0.001683	    0.009407	    0.020492	   -0.004537	    0.015955	   -0.001109	    0.009272	    0.008163	   -0.009900	    0.030191	    0.020291	    0.021067	   -0.003792	    0.017275	    0.021334	   -0.007008	    0.014326	   -0.002784	    0.011720	    0.008936	    0.008949	   -0.001217	    0.007732	    0.018053	    0.001909	    0.019961	    0.019722	    0.003254	    0.022976	   -0.004573	    0.020498	    0.015926
     4.275	0	0	    0	    0.004671	    0.000645	    0.005316	    0.009595	   -0.003888	    0.005708	    0.014111	   -0.006816	    0.007295	    0.007352	   -0.002897	    0.004455	    0.008616	    0.005594	    0.014210	    0.021039	    0.002563	    0.023603	    0.027072	   -0.064188	   -0.037116	    0.009203	    0.000378	    0.009581	    0.010148	   -0.001278	    0.008870	    0.017901	   -0.014691	    0.003210	    0.005528	    0.000272	    0.005800	    0.008051	   -0.000023	    0.008028	    0.014507	    0.003558	    0.018065	    0.019260	   -0.021243	   -0.001983	    0.050343	   -0.011791	    0.038551	   -0.009407	   -0.010240	   -0.019647	    0.009218	   -0.001492	    0.007726	    0.005039	    0.000760	    0.005800	    0.007097	   -0.002003	    0.005094	    0.011344	    0.002673	    0.014017	   -0.014464	   -0.019972	   -0.034436	    0.004955	   -0.058531	   -0.053576
     4.350	0	0	    0	   -0.009860	    0.007792	   -0.002068	    0.004611	   -0.002049	    0.002562	    0.003196	    0.002451	    0.005647	    0.004122	    0.000356	    0.004478	    0.008713	    0.006844	    0.015557	    0.016151	    0.001832	    0.017984	    0.053156	   -0.055971	   -0.002815	   -0.023830	   -0.011492	   -0.035322	    0.011435	   -0.002963	    0.008472	    0.006663	   -0.005932	    0.000731	    0.005255	    0.000686	    0.005941	    0.005250	   -0.001026	    0.004224	    0.015640	    0.000279	    0.015919	    0.000137	   -0.015329	   -0.015192	    0.080457	    0.013030	    0.093487	   -0.017961	   -0.039978	   -0.057939	    0.013892	   -0.011960	    0.001932	    0.002476	   -0.000543	    0.001934	    0.006262	   -0.003082	    0.003180	    0.003993	   -0.006014	   -0.002021	   -0.045729	   -0.067749	   -0.113478	    0.085432	   -0.043667	    0.041765
     4.425	0	0	    0	   -0.007893	   -0.010141	   -0.018034	    0.007154	   -0.007182	   -0.000028	    0.007130	   -0.005040	    0.002089	    0.004618	   -0.003578	    0.001040	    0.008138	    0.010170	    0.018308	    0.029689	   -0.016032	    0.013658	    0.119019	   -0.102423	    0.016596	   -0.024272	   -0.042994	   -0.067265	    0.013204	   -0.003807	    0.009397	    0.016023	   -0.018652	   -0.002629	    0.003672	    0.000760	    0.004432	    0.003915	   -0.000038	    0.003877	    0.010566	    0.006234	    0.016801	   -0.002778	   -0.022011	   -0.024789	    0.145779	    0.035694	    0.181473	   -0.023405	   -0.053302	   -0.076707	    0.013917	   -0.014054	   -0.000137	    0.008344	   -0.002171	    0.006173	    0.005530	   -0.003097	    0.002433	    0.001272	   -0.009699	   -0.008426	   -0.051766	   -0.090178	   -0.141944	    0.092014	    0.032583	    0.124597
     4.500	0	0	    0	   -0.004362	   -0.017303	   -0.021666	    0.000780	   -0.003544	   -0.002764	   -0.005614	    0.008269	    0.002655	    0.005263	   -0.004601	    0.000661	    0.009916	    0.005348	    0.015264	    0.001506	    0.008490	    0.009996	    0.038228	   -0.018300	    0.019928	   -0.027306	   -0.049539	   -0.076845	    0.010601	   -0.002839	    0.007761	    0.001017	    0.000757	    0.001774	    0.004206	   -0.000286	    0.003920	    0.003840	   -0.002136	    0.001704	    0.004551	    0.006641	    0.011192	    0.001055	   -0.031115	   -0.030061	    0.160201	    0.029884	    0.190084	   -0.029947	   -0.057528	   -0.087475	    0.010782	   -0.011067	   -0.000285	    0.004691	    0.000376	    0.005068	    0.005121	   -0.003340	    0.001781	   -0.002037	   -0.009596	   -0.011632	   -0.058230	   -0.094661	   -0.152892	    0.104483	    0.048121	    0.152604
     4.575	0	0	    0	   -0.002966	   -0.027912	   -0.030877	   -0.000547	   -0.004043	   -0.004590	   -0.002924	    0.007475	    0.004551	    0.001864	   -0.002154	   -0.000290	    0.006351	    0.002061	    0.008412	    0.013204	   -0.011754	    0.001450	    0.059090	   -0.056535	    0.002555	   -0.032395	   -0.053994	   -0.086389	    0.006248	   -0.001190	    0.005058	   -0.000596	   -0.003474	   -0.004070	    0.002702	    0.001056	    0.003759	    0.002217	   -0.001287	    0.000930	    0.000904	    0.007271	    0.008175	   -0.028982	   -0.013380	   -0.042362	    0.059666	    0.086348	    0.146013	   -0.034464	   -0.058639	   -0.093103	    0.005931	   -0.008383	   -0.002452	    0.000560	    0.002626	    0.003187	    0.005576	   -0.003414	    0.002161	   -0.004196	   -0.008759	   -0.012955	   -0.059903	   -0.097811	   -0.157715	    0.063987	    0.029358	    0.093344
     4.650	0	0	    0	   -0.002498	   -0.024992	   -0.027490	    0.001609	   -0.006937	   -0.005328	    0.002018	    0.000909	    0.002927	   -0.000279	   -0.000469	   -0.000748	    0.005058	    0.009546	    0.014604	    0.005850	    0.010754	    0.016604	    0.058325	   -0.048296	    0.010029	   -0.032897	   -0.053017	   -0.085914	    0.003768	   -0.003297	    0.000471	    0.003317	    0.006942	    0.010259	    0.002417	    0.000389	    0.002806	    0.001847	   -0.001910	   -0.000063	    0.007133	    0.001966	    0.009099	    0.000338	   -0.053193	   -0.052855	    0.070679	   -0.005381	    0.065298	   -0.025377	   -0.058066	   -0.083442	    0.008811	   -0.008577	    0.000235	    0.004279	    0.003236	    0.007516	    0.004912	   -0.002559	    0.002353	   -0.000300	   -0.009620	   -0.009919	   -0.046097	   -0.093830	   -0.139927	    0.008496	   -0.027602	   -0.019106
     4.725	0	0	    0	   -0.000110	   -0.013675	   -0.013784	    0.001244	   -0.004750	   -0.003506	   -0.001292	    0.000325	   -0.000967	    0.001598	   -0.003868	   -0.002269	    0.004257	    0.004734	    0.008991	   -0.017762	    0.016553	   -0.001209	    0.041622	   -0.039176	    0.002446	   -0.000852	   -0.039489	   -0.040341	   -0.000851	   -0.003034	   -0.003885	   -0.001499	    0.005066	    0.003567	    0.002200	   -0.000374	    0.001826	    0.001288	    0.000377	    0.001665	    0.003436	   -0.000190	    0.003246	   -0.004735	   -0.002132	   -0.006867	    0.033800	   -0.008517	    0.025282	    0.012173	   -0.030786	   -0.018613	    0.017240	   -0.015643	    0.001597	    0.001225	    0.004214	    0.005439	    0.004257	   -0.002003	    0.002254	    0.006109	   -0.004702	    0.001408	    0.017377	   -0.049624	   -0.032247	    0.050049	    0.011909	    0.061957
     4.800	0	0	    0	    0.009615	   -0.012184	   -0.002568	    0.003255	   -0.002991	    0.000264	    0.003128	   -0.000493	    0.002635	    0.003437	   -0.004554	   -0.001117	    0.012083	   -0.006453	    0.005630	   -0.011814	    0.010106	   -0.001708	    0.014332	   -0.021645	   -0.007313	    0.007601	   -0.008432	   -0.000831	   -0.000409	   -0.002360	   -0.002768	    0.002265	    0.012157	    0.014422	    0.001597	    0.000727	    0.002324	    0.003814	   -0.001923	    0.001891	    0.004251	   -0.003626	    0.000624	   -0.006441	   -0.004237	   -0.010678	   -0.004697	    0.006953	    0.002255	   -0.002636	   -0.002784	   -0.005421	    0.006616	   -0.005227	    0.001389	   -0.000321	    0.006168	    0.005847	    0.003480	   -0.001902	    0.001578	    0.004341	   -0.000990	    0.003352	   -0.005299	   -0.002270	   -0.007570	   -0.025934	    0.008338	   -0.017596
     4.875	0	0	    0	   -0.002462	    0.003067	    0.000605	    0.005823	   -0.003788	    0.002035	    0.010231	   -0.002000	    0.008230	    0.003238	   -0.002658	    0.000580	    0.012235	   -0.001498	    0.010737	    0.014056	    0.004424	    0.018480	    0.016100	   -0.068299	   -0.052198	   -0.003320	   -0.004625	   -0.007945	    0.006722	   -0.006476	    0.000246	    0.006166	    0.005800	    0.011966	    0.005353	    0.000545	    0.005898	    0.002861	   -0.000709	    0.002152	    0.013251	   -0.006250	    0.007001	    0.002700	   -0.021791	   -0.019091	    0.047619	   -0.011056	    0.036563	   -0.010833	   -0.025376	   -0.036209	    0.007124	   -0.002427	    0.004698	   -0.000811	    0.007173	    0.006362	    0.005676	   -0.002353	    0.003324	    0.004663	   -0.000913	    0.003750	   -0.020018	   -0.031124	   -0.051142	   -0.004323	   -0.057567	   -0.061889
     4.950	0	0	    0	   -0.007090	    0.003370	   -0.003720	    0.005126	    0.000116	    0.005243	   -0.000573	    0.011039	    0.010466	    0.003796	   -0.000268	    0.003528	    0.007301	    0.004743	    0.012044	    0.016887	    0.009734	    0.026621	    0.039893	   -0.022211	    0.017682	   -0.022781	   -0.013172	   -0.035953	    0.011208	   -0.004142	    0.007066	    0.004127	    0.001388	    0.005515	    0.007722	    0.000115	    0.007837	    0.004792	   -0.001550	    0.003242	    0.017286	   -0.002817	    0.014470	   -0.013079	   -0.013660	   -0.026739	    0.100258	    0.012267	    0.112525	   -0.017713	   -0.040969	   -0.058683	    0.009430	   -0.010782	   -0.001352	    0.004803	    0.001904	    0.006707	    0.007662	   -0.002575	    0.005086	    0.003201	   -0.005289	   -0.002087	   -0.046247	   -0.071183	   -0.117430	    0.104329	   -0.027128	    0.077200
     5.025	0	0	    0	   -0.008286	   -0.013194	   -0.021480	    0.003778	   -0.000391	    0.003387	    0.003602	    0.008003	    0.011606	    0.005433	   -0.000677	    0.004755	    0.004937	    0.012887	    0.017824	    0.003780	    0.007578	    0.011359	    0.045492	   -0.025671	    0.019821	   -0.024850	   -0.042296	   -0.067146	    0.011533	    0.000459	    0.011992	    0.012622	   -0.003450	    0.009172	    0.005827	    0.002356	    0.008183	    0.005067	    0.000014	    0.005081	    0.007413	    0.009932	    0.017344	   -0.011431	   -0.012400	   -0.023831	    0.144398	    0.040224	    0.184622	   -0.025221	   -0.050261	   -0.075482	    0.005474	    0.000724	    0.006198	    0.006056	    0.004853	    0.010909	    0.008166	   -0.002519	    0.005647	    0.001684	   -0.006730	   -0.005046	   -0.049366	   -0.088281	   -0.137646	    0.119437	    0.019687	    0.139124
     5.100	0	0	    0	    0.001933	   -0.018975	   -0.017042	    0.003507	   -0.000866	    0.002641	    0.005510	    0.003939	    0.009449	    0.006817	   -0.003465	    0.003352	    0.014481	    0.000835	    0.015316	   -0.001451	    0.008415	    0.006964	    0.064979	   -0.045344	    0.019635	   -0.024543	   -0.044051	   -0.068594	    0.012976	   -0.001136	    0.011840	   -0.008663	    0.013889	    0.005226	    0.006356	    0.000632	    0.006989	    0.005876	   -0.000702	    0.005174	    0.007953	    0.003970	    0.011922	   -0.013825	   -0.013746	   -0.027570	    0.152681	    0.030282	    0.182962	   -0.021838	   -0.058037	   -0.079875	    0.016068	   -0.015279	    0.000790	    0.009292	   -0.003353	    0.005939	    0.007796	   -0.003281	    0.004515	    0.000570	   -0.008237	   -0.007667	   -0.053348	   -0.091739	   -0.145087	    0.115152	    0.038215	    0.153367
     5.175	0	0	    0	   -0.010455	   -0.010451	   -0.020905	    0.006028	   -0.005120	    0.000909	    0.015160	   -0.001578	    0.013582	    0.005374	   -0.001435	    0.003940	    0.005246	    0.009223	    0.014469	    0.015421	   -0.003079	    0.012343	    0.086193	   -0.046870	    0.039323	   -0.030607	   -0.044019	   -0.074626	    0.008950	    0.001824	    0.010774	    0.010500	    0.004062	    0.014562	    0.007415	    0.000943	    0.008358	    0.003917	   -0.000235	    0.003682	    0.003980	    0.008998	    0.012978	   -0.020252	   -0.017038	   -0.037290	    0.073008	    0.085541	    0.158550	   -0.024982	   -0.050655	   -0.075637	    0.003601	   -0.000012	    0.003589	    0.009529	    0.000497	    0.010026	    0.008941	   -0.003425	    0.005515	   -0.000953	   -0.007553	   -0.008506	   -0.052293	   -0.094024	   -0.146317	    0.085886	    0.024700	    0.110585
     5.250	0	0	    0	    0.010448	   -0.027947	   -0.017499	    0.007697	   -0.004832	    0.002866	    0.010663	    0.001389	    0.012052	    0.008520	   -0.005206	    0.003314	    0.016343	    0.001133	    0.017476	    0.008375	    0.008613	    0.016988	    0.063074	   -0.045882	    0.017192	   -0.009250	   -0.055672	   -0.064922	    0.010982	   -0.003407	    0.007575	    0.012266	    0.005274	    0.017541	    0.006282	    0.001530	    0.007812	    0.007047	   -0.001294	    0.005753	    0.015460	   -0.000546	    0.014914	    0.005698	   -0.041865	   -0.036167	    0.075701	    0.005221	    0.080922	    0.002668	   -0.059505	   -0.056836	    0.021767	   -0.015814	    0.005953	    0.001969	    0.008184	    0.010153	    0.008394	   -0.002059	    0.006334	    0.006765	   -0.007708	   -0.000943	   -0.025815	   -0.093365	   -0.119179	    0.061722	   -0.032028	    0.029694
     5.325	0	0	    0	    0.008559	   -0.009007	   -0.000449	    0.008730	   -0.003023	    0.005707	    0.011197	   -0.002300	    0.008897	    0.011221	   -0.009038	    0.002183	    0.017573	    0.000224	    0.017797	   -0.015530	    0.020292	    0.004763	    0.045853	   -0.020548	    0.025305	    0.016954	   -0.024339	   -0.007384	    0.009501	   -0.004512	    0.004988	    0.011506	    0.004855	    0.016361	    0.005276	    0.001401	    0.006677	    0.007551	    0.000187	    0.007738	    0.010623	   -0.000374	    0.010249	    0.006337	    0.003593	    0.009930	    0.033326	    0.007378	    0.040704	    0.023055	   -0.015029	    0.008026	    0.023760	   -0.013223	    0.010538	    0.004381	    0.004780	    0.009161	    0.007628	   -0.002315	    0.005313	    0.011981	   -0.000806	    0.011174	    0.028171	   -0.031979	   -0.003808	    0.060864	    0.037304	    0.098168
     5.400	0	0	    0	    0.021671	   -0.015212	    0.006459	    0.004622	    0.002250	    0.006873	    0.010496	    0.001166	    0.011662	    0.009685	   -0.007094	    0.002591	    0.019354	   -0.003369	    0.015985	   -0.003474	    0.014745	    0.011271	    0.022939	   -0.020256	    0.002683	    0.022055	   -0.008034	    0.014021	    0.006971	   -0.002860	    0.004111	    0.022669	   -0.008919	    0.013750	    0.005114	    0.001272	    0.006387	    0.008465	   -0.001870	    0.006595	    0.010651	   -0.000554	    0.010097	   -0.000603	    0.000850	    0.000247	    0.006861	   -0.000033	    0.006828	    0.010228	   -0.000655	    0.009573	    0.006612	    0.001309	    0.007921	    0.001423	    0.002490	    0.003913	    0.006998	   -0.002868	    0.004130	    0.010430	    0.001104	    0.011534	    0.006614	   -0.001301	    0.005313	    0.001890	   -0.008211	   -0.006322
     5.475	0	0	    0	    0.015352	   -0.019452	   -0.004099	    0.004156	   -0.004300	   -0.000144	    0.001888	    0.002780	    0.004668	    0.008611	   -0.006564	    0.002046	    0.017232	   -0.006579	    0.010653	    0.007200	    0.011985	    0.019185	    0.015792	   -0.055284	   -0.039491	    0.005694	   -0.008887	   -0.003192	    0.007431	   -0.006232	    0.001199	   -0.003183	    0.003854	    0.000670	    0.004261	    0.000270	    0.004532	    0.006065	   -0.000252	    0.005813	    0.011674	   -0.001809	    0.009865	   -0.004536	   -0.004804	   -0.009340	    0.058414	   -0.017835	    0.040579	   -0.014651	   -0.023176	   -0.037827	    0.013905	   -0.013008	    0.000896	    0.001541	   -0.001447	    0.000094	    0.004795	   -0.003958	    0.000837	    0.002266	    0.000243	    0.002509	   -0.027283	   -0.028956	   -0.056239	    0.002491	   -0.066285	   -0.063794
     5.550	0	0	    0	    0.008851	   -0.015849	   -0.006998	    0.001028	   -0.003644	   -0.002616	    0.003327	    0.000577	    0.003903	    0.005704	   -0.005983	   -0.000278	    0.013873	    0.002357	    0.016230	    0.012496	    0.004409	    0.016905	    0.048778	   -0.045127	    0.003650	   -0.020779	   -0.027039	   -0.047819	    0.003407	   -0.002505	    0.000901	    0.012259	   -0.000703	    0.011556	    0.002675	    0.000631	    0.003305	    0.004361	   -0.001819	    0.002542	    0.008183	    0.000533	    0.008715	   -0.022757	   -0.019210	   -0.041967	    0.082900	    0.005883	    0.088784	   -0.028004	   -0.042365	   -0.070370	   -0.001022	    0.001802	    0.000780	    0.003945	    0.002039	    0.005984	    0.002545	   -0.003730	   -0.001185	   -0.005613	   -0.005066	   -0.010680	   -0.058028	   -0.074814	   -0.132842	    0.072316	   -0.028274	    0.044042
     5.625	0	0	    0	   -0.009087	   -0.014870	   -0.023957	   -0.000794	   -0.003943	   -0.004738	    0.000049	   -0.000496	   -0.000447	    0.002222	   -0.004247	   -0.002025	    0.005999	    0.008931	    0.014929	    0.009657	   -0.003567	    0.006090	    0.071169	   -0.067960	    0.003209	   -0.031367	   -0.044420	   -0.075787	    0.001554	   -0.001465	    0.000089	    0.009795	   -0.000884	    0.008910	    0.000658	    0.000858	    0.001517	    0.000946	   -0.000462	    0.000484	    0.001160	    0.005721	    0.006881	   -0.025958	   -0.016439	   -0.042397	    0.124712	    0.034356	    0.159068	   -0.033378	   -0.054733	   -0.088110	   -0.000252	   -0.003654	   -0.003905	    0.005427	   -0.002562	    0.002864	    0.001543	   -0.003787	   -0.002244	   -0.009138	   -0.007419	   -0.016556	   -0.064710	   -0.092538	   -0.157248	    0.082461	    0.019389	    0.101850
     5.700	0	0	    0	   -0.025181	   -0.000705	   -0.025886	   -0.001901	   -0.003656	   -0.005557	   -0.007330	    0.008265	    0.000935	   -0.004444	    0.001936	   -0.002508	   -0.014915	    0.021945	    0.007030	   -0.007324	   -0.001985	   -0.009309	    0.045498	   -0.043322	    0.002176	   -0.046830	   -0.037380	   -0.084209	    0.000650	   -0.000520	    0.000131	   -0.000596	   -0.003474	   -0.004070	   -0.000558	    0.000909	    0.000351	   -0.001489	    0.000909	   -0.000580	   -0.003027	    0.002305	   -0.000723	   -0.032413	   -0.014436	   -0.046849	    0.120418	    0.034573	    0.154991	   -0.042314	   -0.054690	   -0.097004	   -0.003326	   -0.001743	   -0.005069	    0.005290	   -0.003265	    0.002024	    0.001620	   -0.004111	   -0.002492	   -0.010583	   -0.007389	   -0.017972	   -0.069973	   -0.094725	   -0.164698	    0.078203	    0.029237	    0.107440
     5.775	0	0	    0	   -0.017715	   -0.009269	   -0.026984	   -0.003708	   -0.004180	   -0.007888	    0.000825	   -0.004021	   -0.003196	   -0.002906	   -0.004477	   -0.007383	   -0.006247	    0.015445	    0.009198	    0.007463	   -0.009278	   -0.001815	    0.051448	   -0.057747	   -0.006299	   -0.044878	   -0.046516	   -0.091394	   -0.001995	   -0.001752	   -0.003747	    0.006340	   -0.007645	   -0.001305	   -0.001071	   -0.000237	   -0.001308	   -0.002530	   -0.000730	   -0.003260	   -0.002277	    0.002047	   -0.000230	   -0.054772	   -0.017800	   -0.072572	    0.025030	    0.036512	    0.061542	   -0.037781	   -0.061624	   -0.099406	    0.004711	   -0.013337	   -0.008626	    0.002009	   -0.003701	   -0.001692	    0.001126	   -0.003525	   -0.002399	   -0.009779	   -0.010397	   -0.020175	   -0.063397	   -0.102838	   -0.166234	    0.012734	    0.012337	    0.025070
     5.850	0	0	    0	   -0.011664	   -0.006282	   -0.017946	    0.000569	   -0.002215	   -0.001646	    0.000695	    0.003830	    0.004525	   -0.001963	   -0.003642	   -0.005606	    0.003241	    0.013790	    0.017031	   -0.009299	    0.020093	    0.010794	    0.017235	   -0.025068	   -0.007833	   -0.019191	   -0.052922	   -0.072113	   -0.000711	   -0.002937	   -0.003648	    0.007657	   -0.000742	    0.006915	    0.003448	   -0.000590	    0.002858	   -0.000101	   -0.000741	   -0.000842	   -0.000604	    0.006196	    0.005592	   -0.018149	   -0.015621	   -0.033770	    0.011663	    0.007348	    0.019011	   -0.008932	   -0.049201	   -0.058133	   -0.000344	   -0.001503	   -0.001848	    0.006324	    0.000769	    0.007093	    0.005946	   -0.004208	    0.001738	    0.002170	   -0.006946	   -0.004776	   -0.012669	   -0.084152	   -0.096821	    0.062461	   -0.050921	    0.011540
     5.925	0	0	    0	   -0.004449	   -0.005383	   -0.009831	    0.008445	   -0.002018	    0.006427	    0.009187	    0.003242	    0.012429	    0.005674	   -0.004705	    0.000968	    0.010985	    0.002624	    0.013609	   -0.008641	    0.014545	    0.005905	    0.046878	   -0.044366	    0.002512	    0.011610	   -0.025097	   -0.013487	    0.009366	   -0.006363	    0.003003	    0.006058	    0.010421	    0.016479	    0.005253	    0.001349	    0.006602	    0.005024	    0.000874	    0.005898	    0.013009	   -0.002826	    0.010184	    0.007660	   -0.012913	   -0.005253	    0.013336	    0.015361	    0.028697	    0.017485	   -0.011663	    0.005822	    0.013491	   -0.000713	    0.012778	    0.014062	   -0.001886	    0.012175	    0.007424	   -0.002483	    0.004941	    0.011697	    0.002303	    0.014000	    0.020247	   -0.009632	    0.010615	    0.034541	    0.020101	    0.054642
     6.000	0	0	    0	   -0.023812	    0.027298	    0.003486	    0.013321	   -0.005897	    0.007424	    0.018959	   -0.007164	    0.011795	    0.005757	   -0.002333	    0.003424	    0.005204	    0.008033	    0.013237	    0.018417	   -0.010666	    0.007751	    0.030033	   -0.080847	   -0.050813	    0.003129	    0.002403	    0.005533	    0.010856	   -0.005105	    0.005751	    0.031603	   -0.017981	    0.013622	    0.006316	    0.001373	    0.007689	    0.006698	    0.001571	    0.008269	    0.017071	   -0.003451	    0.013620	   -0.009559	   -0.015659	   -0.025218	   -0.007061	   -0.008893	   -0.015954	    0.009916	   -0.007337	    0.002579	    0.018752	   -0.007420	    0.011333	    0.007258	    0.002500	    0.009758	    0.007401	   -0.001872	    0.005529	    0.012492	    0.003880	    0.016372	   -0.008505	   -0.000200	   -0.008705	    0.007218	   -0.048726	   -0.041508
     6.075	0	0	    0	    0.004781	   -0.004220	    0.000561	    0.008935	   -0.002663	    0.006272	    0.017980	   -0.003772	    0.014207	    0.006888	   -0.001688	    0.005199	    0.007510	    0.008343	    0.015853	    0.022123	   -0.000738	    0.021385	    0.035620	   -0.079817	   -0.044196	   -0.001107	   -0.003062	   -0.004168	    0.010311	   -0.000947	    0.009364	    0.028108	   -0.022742	    0.005367	    0.007263	    0.001270	    0.008533	    0.007605	    0.000227	    0.007832	    0.014959	    0.003213	    0.018173	   -0.007517	   -0.012627	   -0.020144	    0.059458	    0.010293	    0.069751	   -0.009480	   -0.021888	   -0.031367	    0.010635	   -0.003775	    0.006860	    0.007160	    0.000153	    0.007313	    0.007802	   -0.003331	    0.004470	    0.004944	    0.002153	    0.007097	   -0.042414	   -0.028753	   -0.071167	    0.047249	   -0.087846	   -0.040597
     6.150	0	0	    0	    0.009463	   -0.014771	   -0.005308	    0.002663	    0.002728	    0.005391	    0.010836	    0.001610	    0.012446	    0.007065	   -0.002536	    0.004529	    0.016917	    0.005027	    0.021944	    0.018749	    0.002542	    0.021291	    0.040791	   -0.051192	   -0.010401	   -0.013602	   -0.040530	   -0.054132	    0.008909	    0.001193	    0.010102	    0.013331	    0.001486	    0.014817	    0.006229	    0.002226	    0.008455	    0.006670	   -0.000108	    0.006561	    0.011534	    0.008984	    0.020518	   -0.013418	   -0.024278	   -0.037696	    0.072396	    0.002892	    0.075289	   -0.017906	   -0.043966	   -0.061872	    0.009845	   -0.002832	    0.007013	    0.009043	    0.001502	    0.010545	    0.007793	   -0.003481	    0.004313	   -0.000101	   -0.002063	   -0.002164	   -0.047600	   -0.073291	   -0.120891	    0.061214	   -0.013498	    0.047716
     6.225	0	0	    0	   -0.000360	   -0.014277	   -0.014637	    0.004258	   -0.001167	    0.003091	    0.008050	    0.002921	    0.010971	    0.005757	   -0.002333	    0.003424	    0.010496	    0.015107	    0.025603	    0.016239	    0.007561	    0.023799	    0.055769	   -0.051555	    0.004214	   -0.018958	   -0.045517	   -0.064475	    0.009157	    0.000684	    0.009841	    0.000759	    0.011329	    0.012088	    0.006438	    0.002245	    0.008683	    0.006167	    0.000224	    0.006391	    0.009367	    0.011041	    0.020409	   -0.018588	   -0.029724	   -0.048312	    0.065772	    0.019854	    0.085626	   -0.019896	   -0.048778	   -0.068674	    0.012696	   -0.009348	    0.003348	    0.007497	    0.001350	    0.008847	    0.007542	   -0.003080	    0.004462	    0.000502	   -0.005708	   -0.005206	   -0.047233	   -0.086671	   -0.133904	    0.071674	   -0.012191	    0.059482
     6.300	0	0	    0	   -0.004137	   -0.012204	   -0.016341	    0.004123	   -0.003406	    0.000717	    0.011020	    0.003577	    0.014597	    0.002761	    0.002700	    0.005461	    0.006769	    0.017862	    0.024631	    0.009525	    0.011053	    0.020578	    0.060090	   -0.050864	    0.009226	   -0.025352	   -0.041990	   -0.067342	    0.004507	    0.002052	    0.006559	    0.001759	    0.013591	    0.015350	    0.006502	    0.002516	    0.009019	    0.004564	    0.000544	    0.005107	    0.008563	    0.009864	    0.018427	   -0.017465	   -0.030712	   -0.048177	    0.073702	    0.014533	    0.088235	   -0.023905	   -0.048964	   -0.072869	    0.007975	   -0.005514	    0.002461	    0.007497	    0.001350	    0.008847	    0.007607	   -0.003757	    0.003850	   -0.003174	   -0.005062	   -0.008237	   -0.050644	   -0.086713	   -0.137357	    0.070660	   -0.021439	    0.049221
     6.375	0	0	    0	   -0.012920	   -0.001096	   -0.014016	    0.002578	   -0.002351	    0.000227	    0.000639	    0.006080	    0.006718	    0.003483	   -0.000284	    0.003199	    0.004152	    0.017199	    0.021351	    0.011521	    0.003689	    0.015210	    0.048357	   -0.048014	    0.000343	   -0.031372	   -0.041305	   -0.072677	    0.003672	    0.001930	    0.005603	    0.009439	   -0.004042	    0.005397	    0.006498	    0.001219	    0.007716	    0.004230	   -0.000743	    0.003488	    0.005908	    0.010106	    0.016015	   -0.020906	   -0.031842	   -0.052748	    0.101876	    0.004735	    0.106611	   -0.024280	   -0.053924	   -0.078204	   -0.001078	    0.002895	    0.001818	    0.008710	   -0.002599	    0.006111	    0.007514	   -0.004468	    0.003046	   -0.005868	   -0.005089	   -0.010957	   -0.052883	   -0.087664	   -0.140547	    0.111537	   -0.009451	    0.102086
     6.450	0	0	    0	   -0.003997	   -0.014165	   -0.018162	    0.000605	   -0.000981	   -0.000376	    0.006019	    0.002376	    0.008396	    0.004631	   -0.002976	    0.001655	    0.004774	    0.014426	    0.019199	    0.007104	    0.001517	    0.008621	    0.070360	   -0.051254	    0.019106	   -0.031875	   -0.045144	   -0.077019	    0.006897	   -0.001946	    0.004951	   -0.004186	    0.015455	    0.011270	    0.003004	    0.002402	    0.005405	    0.002400	    0.000573	    0.002973	    0.001850	    0.009015	    0.010865	   -0.028758	   -0.011391	   -0.040149	    0.134788	    0.037673	    0.172461	   -0.030134	   -0.057880	   -0.088014	    0.008687	   -0.010023	   -0.001337	    0.002401	    0.003990	    0.006390	    0.005619	   -0.003931	    0.001688	   -0.006426	   -0.008801	   -0.015226	   -0.058771	   -0.093128	   -0.151899	    0.101336	    0.035452	    0.136789
     6.525	0	0	    0	   -0.007091	   -0.022706	   -0.029797	   -0.000688	   -0.002602	   -0.003290	    0.000707	    0.002093	    0.002800	    0.004871	   -0.004312	    0.000559	    0.007032	    0.007747	    0.014779	    0.009072	   -0.006562	    0.002510	    0.061428	   -0.056284	    0.005144	   -0.036295	   -0.047328	   -0.083623	    0.001741	    0.001881	    0.003623	    0.021984	   -0.007922	    0.014061	    0.001086	    0.002605	    0.003691	    0.001385	   -0.000437	    0.000947	   -0.006323	    0.011826	    0.005503	   -0.025932	   -0.017766	   -0.043698	    0.136241	    0.024058	    0.160299	   -0.040867	   -0.054056	   -0.094924	   -0.001360	    0.000290	   -0.001069	    0.006296	    0.002394	    0.008690	    0.005182	   -0.004412	    0.000770	   -0.010087	   -0.007679	   -0.017766	   -0.063354	   -0.094682	   -0.158036	    0.098778	    0.049813	    0.148590
     6.600	0	0	    0	   -0.010289	   -0.019518	   -0.029807	   -0.004309	   -0.000433	   -0.004741	   -0.005844	    0.005568	   -0.000276	    0.002344	   -0.006646	   -0.004302	   -0.001893	    0.012489	    0.010595	   -0.008103	    0.011970	    0.003868	    0.036279	   -0.036551	   -0.000272	   -0.042912	   -0.047033	   -0.089946	    0.002550	   -0.000784	    0.001766	   -0.002318	    0.012055	    0.009737	   -0.000634	    0.002469	    0.001834	    0.000173	   -0.000982	   -0.000809	   -0.004975	    0.008659	    0.003683	   -0.049963	   -0.013010	   -0.062973	    0.041628	    0.043169	    0.084798	   -0.031444	   -0.059511	   -0.090955	    0.004632	   -0.009319	   -0.004687	   -0.000753	    0.004234	    0.003481	    0.003789	   -0.003815	   -0.000025	   -0.009276	   -0.008899	   -0.018175	   -0.062387	   -0.097929	   -0.160316	    0.041150	    0.009670	    0.050820
     6.675	0	0	    0	   -0.002058	   -0.015717	   -0.017775	   -0.001244	   -0.002078	   -0.003322	    0.004773	   -0.006359	   -0.001586	    0.000561	   -0.004594	   -0.004033	    0.009456	    0.005352	    0.014809	   -0.009061	    0.014097	    0.005036	    0.058572	   -0.046528	    0.012044	   -0.015312	   -0.053979	   -0.069291	   -0.004274	    0.001208	   -0.003066	   -0.005429	    0.009962	    0.004533	    0.000203	    0.000423	    0.000625	    0.000883	   -0.001003	   -0.000120	   -0.004566	    0.009928	    0.005361	   -0.011750	   -0.031226	   -0.042975	   -0.003289	    0.010221	    0.006932	   -0.005659	   -0.044833	   -0.050492	    0.012957	   -0.015272	   -0.002314	    0.005508	   -0.003592	    0.001915	    0.003614	   -0.003453	    0.000162	   -0.004272	   -0.004541	   -0.008813	   -0.016868	   -0.088694	   -0.105562	    0.050837	   -0.038193	    0.012644
     6.750	0	0	    0	   -0.005206	   -0.007239	   -0.012445	   -0.000828	    0.002103	    0.001275	   -0.004196	    0.012937	    0.008741	   -0.000510	   -0.003243	   -0.003753	   -0.000550	    0.004402	    0.003852	   -0.041778	    0.055062	    0.013284	   -0.010203	    0.031165	    0.020962	    0.002112	   -0.009113	   -0.007001	   -0.011223	    0.016751	    0.005528	   -0.020250	    0.066261	    0.046011	   -0.000732	    0.002021	    0.001289	    0.000394	    0.000218	    0.000612	   -0.022140	    0.038422	    0.016282	   -0.024206	    0.026498	    0.002292	   -0.000880	    0.019880	    0.019001	   -0.018519	    0.040012	    0.021493	   -0.061728	    0.121587	    0.059860	    0.001445	    0.005180	    0.006625	    0.003054	   -0.002437	    0.000616	   -0.004628	    0.013179	    0.008551	    0.000286	    0.014435	    0.014720	    0.015776	    0.038815	    0.054591
     6.825	0	0	    0	   -0.002098	    0.001685	   -0.000413	    0.001574	   -0.002172	   -0.000598	   -0.002867	    0.002282	   -0.000585	    0.001932	   -0.004902	   -0.002971	    0.004976	    0.000577	    0.005552	   -0.007766	    0.007877	    0.000111	   -0.001876	   -0.042845	   -0.044720	   -0.004734	    0.005519	    0.000786	   -0.003051	   -0.003810	   -0.006861	    0.013987	   -0.014226	   -0.000239	   -0.000962	    0.000989	    0.000027	   -0.000005	    0.001021	    0.001016	    0.001681	   -0.004080	   -0.002399	   -0.027739	   -0.008758	   -0.036498	   -0.022079	   -0.003763	   -0.025842	   -0.007717	   -0.009807	   -0.017523	    0.006147	   -0.009224	   -0.003077	    0.001164	   -0.000224	    0.000941	    0.000716	   -0.002627	   -0.001911	   -0.002160	    0.001703	   -0.000457	   -0.027100	   -0.004796	   -0.031896	   -0.039852	   -0.035167	   -0.075020
     6.900	0	0	    0	   -0.010779	    0.003447	   -0.007331	   -0.006548	    0.002140	   -0.004408	   -0.006364	    0.009627	    0.003263	   -0.001010	   -0.002611	   -0.003621	    0.003465	    0.000579	    0.004043	   -0.005848	    0.018610	    0.012762	    0.010499	   -0.039392	   -0.028894	   -0.026891	   -0.000524	   -0.027415	   -0.005577	   -0.000838	   -0.006414	   -0.014153	    0.028949	    0.014796	   -0.001189	    0.001210	    0.000022	   -0.000610	   -0.000987	   -0.001597	   -0.004395	    0.001947	   -0.002448	   -0.030677	    0.001086	   -0.029591	    0.056288	    0.017725	    0.074014	   -0.040009	   -0.026388	   -0.066396	   -0.001938	    0.000540	   -0.001399	   -0.000505	    0.003086	    0.002581	    0.001937	   -0.004535	   -0.002598	   -0.011282	   -0.001134	   -0.012416	   -0.055509	   -0.043527	   -0.099037	    0.035928	   -0.089718	   -0.053790
     6.975	0	0	    0	   -0.002216	   -0.020018	   -0.022234	   -0.000146	   -0.000903	   -0.001050	    0.008966	   -0.003023	    0.005943	    0.003972	   -0.007279	   -0.003307	    0.012997	    0.004750	    0.017746	    0.017075	   -0.000281	    0.016794	    0.046303	   -0.049038	   -0.002735	   -0.028729	   -0.043945	   -0.072674	    0.002919	   -0.001500	    0.001419	    0.006521	    0.009019	    0.015540	    0.001038	    0.001934	    0.002972	    0.001879	   -0.000569	    0.001310	   -0.000054	    0.010473	    0.010419	   -0.029547	   -0.015192	   -0.044739	    0.054766	    0.042857	    0.097623	   -0.034015	   -0.047008	   -0.081023	    0.002323	   -0.001889	    0.000434	    0.006286	    0.003207	    0.009493	    0.005235	   -0.003684	    0.001551	   -0.007140	   -0.003726	   -0.010866	   -0.057801	   -0.079620	   -0.137421	    0.081276	   -0.013044	    0.068233
     7.050	0	0	    0	   -0.010872	   -0.023169	   -0.034041	    0.000998	   -0.002532	   -0.001533	    0.005238	    0.003370	    0.008608	   -0.000154	    0.000197	    0.000042	    0.005391	    0.015045	    0.020436	    0.006796	    0.002894	    0.009690	    0.056784	   -0.068618	   -0.011833	   -0.033154	   -0.042821	   -0.075974	    0.003587	    0.000522	    0.004109	    0.005471	    0.006796	    0.012267	    0.002539	    0.002139	    0.004678	    0.003366	    0.001547	    0.004913	   -0.000081	    0.010651	    0.010571	   -0.025813	   -0.018727	   -0.044540	    0.046918	    0.052048	    0.098966	   -0.029789	   -0.052719	   -0.082508	    0.016837	   -0.013085	    0.003752	    0.005599	    0.002920	    0.008519	    0.006401	   -0.002937	    0.003464	   -0.003832	   -0.002391	   -0.006223	   -0.050664	   -0.088340	   -0.139004	    0.088837	   -0.006483	    0.082354
     7.125	0	0	    0	    0.002708	   -0.036838	   -0.034130	    0.001897	   -0.001933	   -0.000036	    0.007344	    0.003786	    0.011129	    0.003944	   -0.003345	    0.000599	    0.009338	    0.008060	    0.017399	    0.015009	   -0.003547	    0.011462	    0.061914	   -0.063636	   -0.001722	   -0.028613	   -0.048234	   -0.076848	    0.003203	    0.003421	    0.006624	    0.009799	   -0.006755	    0.003044	    0.002404	    0.003182	    0.005585	    0.003658	    0.000585	    0.004242	   -0.003793	    0.014683	    0.010890	   -0.028295	   -0.018289	   -0.046584	    0.056693	    0.049556	    0.106249	   -0.030712	   -0.049099	   -0.079811	   -0.000408	    0.005055	    0.004647	    0.007776	   -0.002224	    0.005552	    0.006875	   -0.003121	    0.003754	   -0.005836	   -0.001618	   -0.007454	   -0.051591	   -0.086028	   -0.137619	    0.104431	   -0.016335	    0.088096
     7.200	0	0	    0	   -0.003932	   -0.023171	   -0.027103	    0.001960	   -0.003940	   -0.001980	    0.003871	    0.004207	    0.008078	    0.006252	   -0.006470	   -0.000218	    0.010577	    0.007754	    0.018332	    0.010334	    0.001320	    0.011654	    0.078374	   -0.073272	    0.005102	   -0.029657	   -0.045886	   -0.075543	    0.004154	    0.000758	    0.004912	    0.014397	   -0.006745	    0.007653	    0.003215	    0.002500	    0.005716	    0.004864	   -0.000936	    0.003928	    0.003549	    0.007725	    0.011274	   -0.018438	   -0.026131	   -0.044569	    0.092424	    0.054303	    0.146727	   -0.025424	   -0.051315	   -0.076738	    0.011710	   -0.008622	    0.003088	    0.009178	   -0.002787	    0.006392	    0.007178	   -0.003890	    0.003288	   -0.005113	   -0.002509	   -0.007622	   -0.051532	   -0.088724	   -0.140257	    0.110428	    0.017404	    0.127832
     7.275	0	0	    0	   -0.023329	   -0.001284	   -0.024613	    0.001848	   -0.003606	   -0.001758	    0.007284	   -0.000051	    0.007232	    0.001308	   -0.002271	   -0.000963	   -0.001178	    0.017407	    0.016229	    0.007348	   -0.005418	    0.001930	    0.083290	   -0.079397	    0.003893	   -0.032230	   -0.045700	   -0.077930	    0.003477	    0.000971	    0.004448	    0.015787	   -0.011706	    0.004081	    0.001653	    0.002950	    0.004603	    0.002706	    0.001682	    0.004387	    0.001083	    0.007371	    0.008454	   -0.014469	   -0.020301	   -0.034770	    0.136259	    0.040371	    0.176630	   -0.030635	   -0.054735	   -0.085370	    0.007838	   -0.007860	   -0.000022	    0.005974	    0.000385	    0.006359	    0.006661	   -0.003637	    0.003024	   -0.006691	   -0.003850	   -0.010542	   -0.055548	   -0.090140	   -0.145688	    0.131507	    0.034865	    0.166371
     7.350	0	0	    0	   -0.019677	   -0.005910	   -0.025587	    0.003817	   -0.004974	   -0.001157	    0.001866	    0.005388	    0.007254	   -0.002117	    0.000015	   -0.002102	   -0.005744	    0.021933	    0.016190	    0.005003	   -0.001538	    0.003465	    0.072934	   -0.049170	    0.023764	   -0.034028	   -0.046833	   -0.080860	    0.002726	    0.002338	    0.005064	    0.005763	    0.008604	    0.014366	    0.000922	    0.002102	    0.003024	    0.002545	    0.001486	    0.004031	   -0.002113	    0.010124	    0.008011	   -0.019310	   -0.021340	   -0.040650	    0.141155	    0.045082	    0.186237	   -0.036015	   -0.053596	   -0.089612	    0.010161	   -0.008705	    0.001455	    0.006175	    0.002970	    0.009145	    0.006650	   -0.003986	    0.002664	   -0.008921	   -0.002529	   -0.011451	   -0.056950	   -0.092059	   -0.149009	    0.141982	    0.046917	    0.188900
     7.425	0	0	    0	   -0.019162	   -0.014418	   -0.033580	   -0.005049	   -0.000136	   -0.005185	   -0.000107	    0.005693	    0.005586	   -0.002823	   -0.000318	   -0.003141	    0.004153	    0.011357	    0.015510	    0.003664	   -0.002701	    0.000962	    0.070360	   -0.051254	    0.019106	   -0.036561	   -0.046659	   -0.083220	   -0.001995	    0.003572	    0.001577	   -0.012120	    0.018802	    0.006682	   -0.000927	    0.001420	    0.000493	    0.001466	    0.000950	    0.002416	   -0.005886	    0.011493	    0.005607	   -0.023301	   -0.030882	   -0.054183	    0.061460	    0.085628	    0.147089	   -0.044102	   -0.050776	   -0.094878	    0.001403	    0.002304	    0.003707	    0.006710	   -0.000472	    0.006238	    0.005863	   -0.003425	    0.002438	   -0.009669	   -0.004085	   -0.013755	   -0.061478	   -0.092701	   -0.154179	    0.101238	    0.038568	    0.139807
     7.500	0	0	    0	   -0.004322	   -0.026210	   -0.030532	   -0.002752	   -0.003250	   -0.006003	    0.001661	    0.002192	    0.003853	   -0.000829	   -0.003451	   -0.004280	    0.002180	    0.008607	    0.010786	    0.001392	    0.011544	    0.012936	    0.043145	   -0.045427	   -0.002282	   -0.041071	   -0.051658	   -0.092729	   -0.003802	    0.002594	   -0.001209	    0.022489	   -0.017635	    0.004854	   -0.002158	    0.001749	   -0.000410	    0.001691	   -0.000819	    0.000871	   -0.005581	    0.009750	    0.004169	   -0.018554	   -0.045718	   -0.064271	    0.067072	   -0.010067	    0.057004	   -0.042697	   -0.056035	   -0.098732	   -0.002573	    0.002765	    0.000193	    0.001113	    0.003486	    0.004598	    0.005806	   -0.003007	    0.002799	   -0.008342	   -0.003213	   -0.011555	   -0.046013	   -0.090759	   -0.136772	    0.052030	   -0.055534	   -0.003504
     7.575	0	0	    0	   -0.000050	   -0.027203	   -0.027253	   -0.005045	   -0.003138	   -0.008183	   -0.000428	    0.004365	    0.003937	   -0.000515	   -0.005677	   -0.006192	    0.002920	    0.007717	    0.010637	   -0.007859	    0.018365	    0.010505	    0.029159	   -0.049487	   -0.020328	   -0.026827	   -0.053913	   -0.080739	   -0.007947	   -0.000131	   -0.008079	   -0.006135	    0.010953	    0.004817	   -0.003455	    0.002092	   -0.001363	    0.001319	    0.000236	    0.001555	   -0.005530	    0.009399	    0.003869	   -0.024963	   -0.007181	   -0.032144	    0.029753	    0.009775	    0.039527	   -0.030296	   -0.049256	   -0.079553	   -0.003205	    0.007640	    0.004435	   -0.005903	    0.007408	    0.001505	    0.004392	   -0.003355	    0.001037	   -0.005563	    0.001796	   -0.003767	   -0.023518	   -0.071242	   -0.094760	    0.042016	   -0.078942	   -0.036925
     7.650	0	0	    0	   -0.010442	   -0.006037	   -0.016479	   -0.005326	   -0.001711	   -0.007037	   -0.002556	   -0.001913	   -0.004469	   -0.002251	   -0.007121	   -0.009373	    0.001270	    0.005896	    0.007165	   -0.015102	    0.016005	    0.000904	    0.007747	   -0.024349	   -0.016603	   -0.013019	   -0.032563	   -0.045581	   -0.008769	   -0.000719	   -0.009489	   -0.007533	    0.011513	    0.003980	   -0.003945	    0.001359	   -0.002586	    0.000895	    0.000786	    0.001681	    0.000698	    0.001657	    0.002356	   -0.003979	   -0.011732	   -0.015712	    0.024822	    0.009210	    0.034032	   -0.021092	   -0.032708	   -0.053801	    0.006282	   -0.006893	   -0.000610	   -0.004448	    0.003927	   -0.000521	    0.002515	   -0.003075	   -0.000561	   -0.002995	    0.003690	    0.000696	   -0.012665	   -0.040372	   -0.053037	    0.019182	   -0.059399	   -0.040217
     7.725	0	0	    0	   -0.013940	   -0.000699	   -0.014639	   -0.004802	   -0.001128	   -0.005930	    0.000488	    0.000654	    0.001142	   -0.004032	   -0.004668	   -0.008700	   -0.000076	    0.008882	    0.008806	   -0.015927	    0.019917	    0.003991	    0.007110	   -0.041729	   -0.034618	   -0.014917	   -0.023186	   -0.038103	   -0.010023	    0.000839	   -0.009184	   -0.003427	    0.003469	    0.000043	   -0.003528	    0.001112	   -0.002416	   -0.001124	    0.002437	    0.001313	   -0.004114	    0.005724	    0.001610	   -0.012640	   -0.011339	   -0.023978	    0.015445	    0.002759	    0.018204	   -0.027078	   -0.029765	   -0.056842	   -0.001800	    0.001841	    0.000041	    0.002333	   -0.000449	    0.001883	    0.002027	   -0.003630	   -0.001603	   -0.005644	    0.005132	   -0.000512	   -0.026191	   -0.035236	   -0.061427	   -0.001729	   -0.076975	   -0.078704
     7.800	0	0	    0	   -0.024359	   -0.006101	   -0.030461	   -0.008475	   -0.003310	   -0.011785	   -0.013512	    0.012151	   -0.001361	   -0.005294	   -0.003475	   -0.008769	   -0.001589	    0.003798	    0.002208	   -0.004429	    0.009261	    0.004833	    0.013682	   -0.059012	   -0.045329	   -0.035832	   -0.014168	   -0.050000	   -0.010026	   -0.002210	   -0.012236	    0.006624	   -0.001491	    0.005133	   -0.002639	   -0.000878	   -0.003517	   -0.002947	    0.000976	   -0.001971	   -0.001683	    0.000423	   -0.001260	   -0.031349	   -0.003694	   -0.035043	    0.060037	   -0.004125	    0.055912	   -0.040042	   -0.038966	   -0.079008	    0.000557	   -0.005638	   -0.005082	    0.001677	   -0.002813	   -0.001136	    0.000749	   -0.005013	   -0.004264	   -0.013183	    0.001545	   -0.011638	   -0.061372	   -0.053137	   -0.114509	    0.063013	   -0.086645	   -0.023632
     7.875	0	0	    0	   -0.028166	   -0.002159	   -0.030325	   -0.006204	   -0.005945	   -0.012149	    0.006444	   -0.008897	   -0.002453	   -0.005678	   -0.003191	   -0.008869	   -0.000677	    0.012201	    0.011524	    0.008383	   -0.005670	    0.002712	    0.053825	   -0.065708	   -0.011883	   -0.046999	   -0.041526	   -0.088525	   -0.012797	    0.000305	   -0.012493	    0.015646	   -0.020291	   -0.004645	   -0.006909	    0.000321	   -0.006588	   -0.003658	    0.001387	   -0.002272	   -0.008413	    0.009701	    0.001288	   -0.042129	   -0.023873	   -0.066002	    0.055595	    0.033062	    0.088656	   -0.056618	   -0.049589	   -0.106207	   -0.004719	    0.000498	   -0.004221	    0.000955	   -0.001971	   -0.001016	   -0.001542	   -0.004321	   -0.005864	   -0.018394	    0.000152	   -0.018242	   -0.072248	   -0.085320	   -0.157568	    0.080691	   -0.032080	    0.048610
     7.950	0	0	    0	   -0.026542	   -0.008538	   -0.035080	   -0.013874	    0.000482	   -0.013392	   -0.016425	    0.014933	   -0.001493	   -0.010267	   -0.002000	   -0.012267	   -0.003719	    0.016114	    0.012395	   -0.015539	    0.010993	   -0.004546	    0.016087	   -0.034906	   -0.018818	   -0.053607	   -0.045980	   -0.099586	   -0.016673	    0.001185	   -0.015488	   -0.019530	    0.017892	   -0.001637	   -0.007835	   -0.001206	   -0.009042	   -0.005620	    0.001789	   -0.003831	   -0.015730	    0.011049	   -0.004681	   -0.056637	   -0.003845	   -0.060481	    0.038735	    0.066871	    0.105606	   -0.063967	   -0.053834	   -0.117801	   -0.012090	    0.004358	   -0.007732	    0.002138	   -0.005056	   -0.002918	   -0.002388	   -0.004730	   -0.007117	   -0.020378	   -0.001958	   -0.022336	   -0.079018	   -0.091746	   -0.170764	    0.067978	   -0.004698	    0.063279
     8.025	0	0	    0	   -0.016467	   -0.020415	   -0.036882	   -0.011630	   -0.003147	   -0.014777	    0.003967	   -0.006220	   -0.002254	   -0.010657	   -0.004693	   -0.015350	   -0.007161	    0.017256	    0.010095	    0.011202	   -0.009272	    0.001929	    0.053800	   -0.063330	   -0.009530	   -0.055656	   -0.045651	   -0.101306	   -0.013562	   -0.002167	   -0.015728	   -0.000229	   -0.006152	   -0.006381	   -0.005469	   -0.000472	   -0.005941	   -0.006689	    0.001961	   -0.004729	   -0.012323	    0.008456	   -0.003868	   -0.040839	   -0.034942	   -0.075781	    0.060561	   -0.002445	    0.058116	   -0.055624	   -0.060195	   -0.115820	   -0.007978	    0.002194	   -0.005783	    0.002238	   -0.002761	   -0.000523	    0.001005	   -0.003975	   -0.002970	   -0.016304	   -0.004114	   -0.020418	   -0.059769	   -0.099154	   -0.158923	    0.033138	   -0.029999	    0.003139
     8.100	0	0	    0	   -0.011972	   -0.020905	   -0.032877	   -0.001271	   -0.005506	   -0.006778	    0.005552	   -0.003079	    0.002473	   -0.003271	   -0.005428	   -0.008699	   -0.000704	    0.015559	    0.014855	   -0.002048	    0.013036	    0.010988	    0.066343	   -0.081055	   -0.014712	   -0.039754	   -0.049701	   -0.089455	   -0.011406	    0.002613	   -0.008793	    0.009473	   -0.002633	    0.006840	   -0.001007	   -0.000475	   -0.001482	   -0.002222	    0.001139	   -0.001083	   -0.009744	    0.016262	    0.006518	   -0.004687	   -0.021245	   -0.025933	    0.050709	    0.005407	    0.056115	   -0.035749	   -0.047398	   -0.083148	   -0.000468	    0.006162	    0.005694	    0.002631	    0.003650	    0.006281	    0.003467	   -0.002202	    0.001264	   -0.004815	    0.002324	   -0.002491	   -0.013089	   -0.073763	   -0.086852	    0.070833	   -0.065428	    0.005404
     8.175	0	0	    0	   -0.002021	   -0.011225	   -0.013246	    0.000351	   -0.003228	   -0.002877	    0.003683	    0.004859	    0.008542	   -0.001773	   -0.003882	   -0.005655	    0.006397	    0.005342	    0.011739	   -0.014957	    0.022443	    0.007486	    0.040528	   -0.015948	    0.024580	   -0.003102	   -0.030995	   -0.034097	   -0.007989	    0.001856	   -0.006133	    0.005567	    0.002233	    0.007800	    0.000944	   -0.000962	   -0.000018	    0.000406	    0.000990	    0.001396	   -0.000210	    0.008198	    0.007988	    0.009845	   -0.000093	    0.009752	    0.043971	    0.017742	    0.061714	   -0.007668	   -0.019145	   -0.026813	   -0.001836	    0.010919	    0.009082	    0.007160	    0.000153	    0.007313	    0.004838	   -0.002482	    0.002357	    0.002278	    0.007221	    0.009500	    0.007042	   -0.015450	   -0.008409	    0.045900	   -0.028466	    0.017434
     8.250	0	0	    0	   -0.001301	   -0.006711	   -0.008013	    0.003423	   -0.003871	   -0.000448	    0.006642	    0.000301	    0.006943	   -0.001809	   -0.003837	   -0.005647	    0.004273	    0.005324	    0.009597	    0.004733	   -0.000194	    0.004539	    0.039911	   -0.056732	   -0.016821	   -0.006110	   -0.008884	   -0.014994	   -0.004802	    0.001276	   -0.003526	    0.019914	   -0.019117	    0.000797	   -0.001340	    0.000171	   -0.001168	    0.001323	    0.002430	    0.003753	    0.004308	    0.002296	    0.006604	   -0.009247	    0.002079	   -0.007169	    0.005773	    0.003418	    0.009191	   -0.021852	   -0.012352	   -0.034203	    0.002576	    0.001798	    0.004375	   -0.000164	    0.003473	    0.003309	    0.002724	   -0.001911	    0.000813	    0.000899	    0.009431	    0.010331	   -0.015670	   -0.008285	   -0.023955	   -0.007268	   -0.056097	   -0.063365
     8.325	0	0	    0	   -0.005402	   -0.000605	   -0.006007	   -0.002609	   -0.000012	   -0.002621	    0.000646	    0.002599	    0.003245	   -0.001201	   -0.004810	   -0.006011	    0.007008	    0.004432	    0.011439	   -0.000617	    0.018924	    0.018307	    0.025465	   -0.053426	   -0.027960	   -0.026816	   -0.009510	   -0.036326	   -0.006478	    0.002790	   -0.003688	    0.005195	    0.010982	    0.016177	   -0.002548	    0.000220	   -0.002328	    0.000103	    0.002272	    0.002375	    0.003571	    0.004523	    0.008094	   -0.025518	    0.007902	   -0.017617	    0.071323	    0.005672	    0.076994	   -0.035562	   -0.027924	   -0.063486	    0.002236	    0.000278	    0.002513	    0.001005	    0.003251	    0.004256	    0.001962	   -0.003205	   -0.001243	   -0.005580	    0.006032	    0.000452	   -0.052838	   -0.037642	   -0.090480	    0.056681	   -0.077103	   -0.020422
     8.400	0	0	    0	   -0.005619	   -0.021924	   -0.027543	   -0.000522	   -0.005366	   -0.005888	    0.007604	   -0.002190	    0.005414	   -0.003127	   -0.003386	   -0.006513	    0.004917	    0.011671	    0.016588	    0.020823	   -0.008862	    0.011961	    0.077393	   -0.077530	   -0.000137	   -0.033282	   -0.043346	   -0.076628	   -0.004446	    0.000411	   -0.004035	    0.020314	   -0.017473	    0.002841	   -0.002564	   -0.001069	   -0.003633	   -0.001693	    0.003640	    0.001947	   -0.001024	    0.010811	    0.009786	   -0.020493	   -0.026939	   -0.047432	    0.060657	    0.026466	    0.087123	   -0.042825	   -0.045034	   -0.087859	    0.002600	   -0.004714	   -0.002114	    0.005623	   -0.004155	    0.001467	    0.001607	   -0.003566	   -0.001959	   -0.009024	    0.000835	   -0.008190	   -0.059467	   -0.079863	   -0.139330	    0.072459	   -0.006942	    0.065517
     8.475	0	0	    0	   -0.018304	   -0.012897	   -0.031201	   -0.005712	   -0.002507	   -0.008219	    0.005900	   -0.000934	    0.004967	   -0.006244	   -0.001668	   -0.007912	   -0.005485	    0.023520	    0.018035	    0.007529	    0.004815	    0.012344	    0.066214	   -0.071853	   -0.005639	   -0.045409	   -0.039519	   -0.084927	   -0.007500	    0.000856	   -0.006643	    0.019772	   -0.007757	    0.012014	   -0.003461	   -0.000630	   -0.004091	   -0.002855	    0.004423	    0.001569	   -0.004522	    0.012443	    0.007921	   -0.027032	   -0.027930	   -0.054962	    0.052109	    0.017546	    0.069655	   -0.047864	   -0.049905	   -0.097770	   -0.000923	   -0.001254	   -0.002177	    0.002318	    0.001643	    0.003961	    0.001082	   -0.002811	   -0.001729	   -0.010772	   -0.000258	   -0.011030	   -0.061962	   -0.086740	   -0.148702	    0.030452	   -0.005977	    0.024475
     8.550	0	0	    0	   -0.025536	   -0.006356	   -0.031892	   -0.006310	   -0.002648	   -0.008958	   -0.005723	    0.008391	    0.002669	   -0.007104	   -0.003598	   -0.010701	   -0.001812	    0.020181	    0.018369	   -0.006366	    0.021318	    0.014952	    0.034380	   -0.041484	   -0.007104	   -0.048310	   -0.044184	   -0.092494	   -0.010552	    0.000989	   -0.009563	   -0.006964	    0.017987	    0.011023	   -0.004288	   -0.000932	   -0.005220	   -0.002695	    0.003716	    0.001021	   -0.007631	    0.015533	    0.007902	   -0.016214	   -0.015831	   -0.032044	    0.039570	    0.000330	    0.039900	   -0.038760	   -0.054246	   -0.093006	   -0.004687	    0.003085	   -0.001602	    0.003753	   -0.002611	    0.001142	    0.001119	   -0.002183	   -0.001065	   -0.007210	    0.001761	   -0.005448	   -0.030643	   -0.079672	   -0.110315	    0.047942	   -0.075533	   -0.027591
     8.625	0	0	    0	   -0.016654	   -0.007086	   -0.023739	   -0.007934	   -0.000176	   -0.008110	   -0.005381	    0.004135	   -0.001245	   -0.007109	   -0.004193	   -0.011302	   -0.003091	    0.012766	    0.009675	   -0.022914	    0.023934	    0.001020	    0.025851	   -0.028862	   -0.003011	   -0.020012	   -0.032779	   -0.052791	   -0.013056	    0.000810	   -0.012246	    0.002717	    0.003375	    0.006093	   -0.004925	   -0.001049	   -0.005974	   -0.002930	    0.003421	    0.000490	   -0.006142	    0.009632	    0.003489	    0.004108	    0.003455	    0.007563	    0.027110	    0.021201	    0.048310	   -0.011200	   -0.030913	   -0.042113	   -0.007566	    0.012096	    0.004530	    0.003866	   -0.001100	    0.002766	   -0.000156	   -0.002085	   -0.002241	   -0.003056	    0.005889	    0.002833	   -0.003635	   -0.024127	   -0.027762	    0.004608	    0.003043	    0.007651
     8.700	0	0	    0	   -0.003113	   -0.012603	   -0.015716	   -0.003490	   -0.002511	   -0.006001	   -0.005246	    0.002278	   -0.002968	   -0.008681	   -0.004804	   -0.013485	   -0.003387	    0.013070	    0.009683	   -0.007388	    0.011067	    0.003679	    0.009697	   -0.020078	   -0.010381	   -0.013180	   -0.009194	   -0.022373	   -0.010129	   -0.001620	   -0.011749	    0.002518	    0.014006	    0.016524	   -0.005556	   -0.001525	   -0.007081	   -0.004019	    0.004696	    0.000677	   -0.003538	    0.004260	    0.000722	   -0.020987	    0.016704	   -0.004284	   -0.000804	    0.010373	    0.009569	   -0.024609	   -0.008819	   -0.033428	   -0.004906	    0.011745	    0.006839	    0.001044	    0.000344	    0.001389	   -0.001622	   -0.002315	   -0.003937	   -0.003459	    0.005945	    0.002487	   -0.020352	   -0.006644	   -0.026997	   -0.030709	   -0.049712	   -0.080421
     8.775	0	0	    0	   -0.013172	   -0.004378	   -0.017550	   -0.007322	   -0.003251	   -0.010574	   -0.009140	    0.005442	   -0.003699	   -0.006929	   -0.005423	   -0.012352	    0.002168	    0.008009	    0.010177	    0.002068	    0.013542	    0.015610	    0.020022	   -0.049443	   -0.029422	   -0.027203	   -0.005356	   -0.032559	   -0.016251	    0.002096	   -0.014155	    0.003860	   -0.004808	   -0.000949	   -0.006583	   -0.002251	   -0.008833	   -0.005576	    0.003895	   -0.001681	   -0.007930	    0.009023	    0.001093	   -0.029672	    0.015380	   -0.014292	    0.042254	    0.020361	    0.062615	   -0.049486	   -0.018072	   -0.067558	   -0.005050	   -0.001000	   -0.006051	   -0.005416	    0.000680	   -0.004736	   -0.004675	   -0.002319	   -0.006994	   -0.013765	    0.007336	   -0.006430	   -0.068062	   -0.020989	   -0.089052	    0.028068	   -0.079926	   -0.051858
     8.850	0	0	    0	   -0.016063	   -0.017472	   -0.033535	   -0.010393	   -0.001978	   -0.012371	   -0.007150	    0.004644	   -0.002506	   -0.007368	   -0.007062	   -0.014430	    0.013092	    0.002065	    0.015157	   -0.009299	    0.020093	    0.010794	    0.024637	   -0.040593	   -0.015956	   -0.046933	   -0.042247	   -0.089179	   -0.016906	    0.002301	   -0.014605	    0.007413	   -0.005532	    0.001881	   -0.009723	   -0.001272	   -0.010995	   -0.006535	    0.003826	   -0.002709	   -0.012236	    0.013564	    0.001328	   -0.040541	   -0.018008	   -0.058549	    0.040562	    0.043715	    0.084278	   -0.064264	   -0.040969	   -0.105233	   -0.006411	   -0.004142	   -0.010552	    0.002357	   -0.005381	   -0.003024	   -0.005062	   -0.003405	   -0.008467	   -0.018396	    0.000976	   -0.017421	   -0.078163	   -0.079769	   -0.157932	    0.041333	    0.006976	    0.048310
     8.925	0	0	    0	   -0.028185	   -0.007323	   -0.035508	   -0.015850	    0.001695	   -0.014156	   -0.004938	   -0.001065	   -0.006003	   -0.015293	   -0.000811	   -0.016104	   -0.008492	    0.024057	    0.015565	   -0.009491	    0.006249	   -0.003242	   -0.000742	   -0.018698	   -0.019440	   -0.057195	   -0.042404	   -0.099598	   -0.014327	   -0.001839	   -0.016165	   -0.010487	    0.000023	   -0.010464	   -0.009546	   -0.002755	   -0.012301	   -0.009529	    0.004373	   -0.005156	   -0.012904	    0.012029	   -0.000875	   -0.055385	   -0.007461	   -0.062846	    0.016136	    0.055150	    0.071286	   -0.064671	   -0.052056	   -0.116727	   -0.008428	    0.000275	   -0.008152	   -0.004498	    0.000312	   -0.004186	   -0.005602	   -0.003339	   -0.008942	   -0.019240	   -0.001552	   -0.020792	   -0.080711	   -0.089734	   -0.170445	    0.008193	    0.015684	    0.023877
     9.000	0	0	    0	   -0.021817	   -0.013628	   -0.035445	   -0.013907	   -0.002395	   -0.016302	   -0.007585	    0.000552	   -0.007033	   -0.013928	   -0.004309	   -0.018236	   -0.004660	    0.021935	    0.017275	   -0.012283	    0.021910	    0.009627	    0.020342	   -0.048468	   -0.028126	   -0.059795	   -0.044558	   -0.104353	   -0.022554	    0.002378	   -0.020176	   -0.010113	    0.009431	   -0.000682	   -0.010972	   -0.001617	   -0.012589	   -0.009548	    0.004385	   -0.005163	   -0.019057	    0.018447	   -0.000610	   -0.038159	   -0.027584	   -0.065743	    0.012844	    0.014686	    0.027530	   -0.067319	   -0.045618	   -0.112937	   -0.022219	    0.019162	   -0.003057	   -0.002779	    0.000627	   -0.002152	   -0.005236	   -0.001662	   -0.006898	   -0.019327	    0.002203	   -0.017123	   -0.063280	   -0.086461	   -0.149741	   -0.003506	   -0.071427	   -0.074933
     9.075	0	0	    0	   -0.027846	    0.000915	   -0.026931	   -0.006174	   -0.001531	   -0.007705	   -0.004442	    0.004241	   -0.000201	   -0.013667	   -0.002468	   -0.016134	   -0.004364	    0.019497	    0.015133	   -0.012983	    0.022810	    0.009826	    0.036279	   -0.036551	   -0.000272	   -0.030213	   -0.041051	   -0.071264	   -0.012486	   -0.004330	   -0.016815	    0.000482	    0.009511	    0.009992	   -0.006634	   -0.001167	   -0.007801	   -0.007863	    0.003645	   -0.004219	   -0.007062	    0.005540	   -0.001522	   -0.009802	    0.003519	   -0.006283	    0.011264	    0.016191	    0.027456	   -0.023241	   -0.037610	   -0.060851	    0.001012	    0.002770	    0.003783	    0.001595	    0.002490	    0.004085	   -0.001901	   -0.001512	   -0.003412	   -0.003922	    0.002875	   -0.001048	   -0.003088	   -0.041045	   -0.044133	    0.018398	   -0.001783	    0.016615
     9.150	0	0	    0	   -0.010657	   -0.001246	   -0.011903	   -0.003615	    0.002749	   -0.000866	   -0.002588	    0.007056	    0.004468	   -0.008169	   -0.002452	   -0.010621	   -0.000550	    0.014650	    0.014100	   -0.014681	    0.025891	    0.011210	    0.018734	   -0.026808	   -0.008074	   -0.015777	    0.000228	   -0.015549	   -0.007784	    0.000506	   -0.007278	    0.007989	    0.002445	    0.010434	   -0.003745	   -0.001258	   -0.005003	   -0.004054	    0.005036	    0.000981	    0.000230	    0.007863	    0.008093	   -0.021850	    0.020800	   -0.001050	   -0.019102	    0.027783	    0.008681	   -0.016744	   -0.002637	   -0.019381	   -0.004000	    0.012151	    0.008151	   -0.000040	    0.002899	    0.002859	   -0.000075	   -0.000925	   -0.001000	    0.001748	    0.009333	    0.011081	   -0.009651	    0.003978	   -0.005673	   -0.044106	    0.003480	   -0.040627
     9.225	0	0	    0	   -0.001939	   -0.007690	   -0.009629	   -0.004390	    0.001807	   -0.002583	    0.006772	   -0.007161	   -0.000389	   -0.007665	   -0.001281	   -0.008947	    0.004604	    0.006814	    0.011419	    0.006585	    0.004084	    0.010669	   -0.012434	   -0.046083	   -0.058517	   -0.010439	   -0.000713	   -0.011152	   -0.006024	    0.000932	   -0.005092	    0.009094	   -0.005762	    0.003332	   -0.003286	   -0.000631	   -0.003917	   -0.002919	    0.004707	    0.001788	    0.002391	    0.007968	    0.010359	   -0.024455	    0.003332	   -0.021123	    0.006586	   -0.004856	    0.001730	   -0.026742	   -0.011457	   -0.038199	   -0.003465	    0.005888	    0.002423	   -0.000022	    0.002092	    0.002070	   -0.000415	   -0.000789	   -0.001204	    0.000143	    0.009747	    0.009890	   -0.027531	   -0.017093	   -0.044624	   -0.034852	   -0.041729	   -0.076581
     9.300	0	0	    0	   -0.019281	   -0.000220	   -0.019500	   -0.004348	    0.000461	   -0.003888	    0.003075	    0.000007	    0.003081	   -0.006899	   -0.002046	   -0.008945	    0.000641	    0.017748	    0.018389	   -0.000364	    0.017562	    0.017198	    0.017343	   -0.041387	   -0.024044	   -0.044990	   -0.018491	   -0.063481	   -0.005228	    0.000906	   -0.004323	   -0.004986	    0.008580	    0.003594	   -0.006143	    0.001429	   -0.004713	   -0.002598	    0.003998	    0.001399	    0.001376	    0.012110	    0.013486	   -0.039398	    0.008962	   -0.030436	    0.039790	    0.023786	    0.063576	   -0.046968	   -0.032060	   -0.079028	   -0.004764	    0.005076	    0.000312	    0.002093	    0.000688	    0.002782	   -0.000879	   -0.001657	   -0.002536	   -0.010598	    0.007001	   -0.003598	   -0.062795	   -0.058368	   -0.121163	    0.051120	   -0.001511	    0.049609
     9.375	0	0	    0	   -0.003100	   -0.021549	   -0.024648	   -0.008491	    0.003266	   -0.005226	   -0.006227	    0.008594	    0.002366	   -0.006143	   -0.003609	   -0.009752	   -0.004008	    0.024847	    0.020839	   -0.001438	    0.015069	    0.013631	    0.021026	   -0.019489	    0.001537	   -0.038076	   -0.041731	   -0.079807	   -0.007009	    0.002780	   -0.004229	   -0.000881	    0.011479	    0.010598	   -0.005290	   -0.000544	   -0.005834	   -0.003621	    0.004794	    0.001173	   -0.003372	    0.013078	    0.009706	   -0.036854	   -0.007244	   -0.044097	    0.029043	    0.080905	    0.109948	   -0.050070	   -0.045281	   -0.095351	   -0.002494	    0.005173	    0.002679	    0.001817	    0.003451	    0.005267	   -0.000365	   -0.001954	   -0.002319	   -0.011262	    0.001569	   -0.009693	   -0.068411	   -0.078455	   -0.146866	    0.051967	    0.041194	    0.093162
     9.450	0	0	    0	   -0.006061	   -0.024866	   -0.030926	   -0.007331	   -0.001370	   -0.008701	   -0.004910	    0.006526	    0.001615	   -0.008741	   -0.001930	   -0.010671	    0.000504	    0.015898	    0.016402	    0.000406	    0.003253	    0.003659	    0.034696	   -0.051707	   -0.017011	   -0.041951	   -0.042887	   -0.084838	   -0.008629	    0.002367	   -0.006262	    0.001846	   -0.001905	   -0.000059	   -0.006424	   -0.000522	   -0.006946	   -0.004408	    0.004203	   -0.000206	   -0.005392	    0.011672	    0.006280	   -0.051901	    0.001841	   -0.050061	    0.013940	    0.085331	    0.099271	   -0.053836	   -0.048681	   -0.102518	    0.001054	   -0.003752	   -0.002698	   -0.000826	    0.001892	    0.001066	   -0.001194	   -0.001879	   -0.003073	   -0.011218	   -0.000136	   -0.011354	   -0.067252	   -0.085727	   -0.152979	    0.042522	    0.030643	    0.073165
     9.525	0	0	    0	   -0.020013	   -0.014205	   -0.034218	   -0.011394	    0.000966	   -0.010428	   -0.009542	    0.006366	   -0.003176	   -0.010152	   -0.001746	   -0.011898	   -0.001634	    0.018010	    0.016376	   -0.002413	    0.017233	    0.014820	    0.006760	   -0.013472	   -0.006712	   -0.048367	   -0.044072	   -0.092439	   -0.008777	    0.001877	   -0.006900	   -0.011926	    0.020682	    0.008756	   -0.006451	   -0.000691	   -0.007141	   -0.006469	    0.005025	   -0.001444	   -0.003723	    0.012307	    0.008584	   -0.020340	   -0.031901	   -0.052241	    0.044094	    0.013646	    0.057741	   -0.050095	   -0.049696	   -0.099792	    0.008343	   -0.004016	    0.004327	    0.003597	    0.001654	    0.005251	   -0.000485	   -0.001361	   -0.001846	   -0.008114	   -0.000911	   -0.009026	   -0.048217	   -0.083344	   -0.131561	    0.009187	   -0.035564	   -0.026376
     9.600	0	0	    0	   -0.007519	   -0.016867	   -0.024386	   -0.009021	    0.000320	   -0.008701	   -0.010052	    0.001541	   -0.008511	   -0.008708	   -0.003171	   -0.011879	   -0.002188	    0.010967	    0.008778	   -0.017485	    0.015314	   -0.002171	    0.020967	   -0.040984	   -0.020017	   -0.030192	   -0.041412	   -0.071604	   -0.010059	    0.000070	   -0.009988	   -0.005824	    0.001863	   -0.003960	   -0.007517	    0.000661	   -0.006856	   -0.005411	    0.004670	   -0.000741	   -0.005819	    0.009145	    0.003326	   -0.004057	    0.001019	   -0.003038	    0.007777	    0.039805	    0.047582	   -0.026863	   -0.036681	   -0.063544	    0.001160	   -0.001387	   -0.000228	   -0.004723	    0.005883	    0.001161	   -0.002278	   -0.000271	   -0.002549	   -0.004651	    0.004252	   -0.000399	   -0.011522	   -0.040869	   -0.052391	   -0.008204	    0.018128	    0.009925
     9.675	0	0	    0	   -0.005052	   -0.011953	   -0.017005	   -0.006104	   -0.001417	   -0.007521	   -0.000234	   -0.004818	   -0.005052	   -0.008441	   -0.003110	   -0.011550	   -0.002188	    0.010967	    0.008778	   -0.005310	    0.008613	    0.003303	    0.010060	   -0.026100	   -0.016039	   -0.015332	   -0.007603	   -0.022935	   -0.010740	   -0.000420	   -0.011160	    0.002803	   -0.001124	    0.001679	   -0.006498	   -0.000911	   -0.007409	   -0.005547	    0.003951	   -0.001597	   -0.003696	    0.007840	    0.004145	   -0.010860	    0.016462	    0.005602	    0.003981	    0.025846	    0.029827	   -0.022310	   -0.008478	   -0.030787	   -0.002357	    0.006490	    0.004133	    0.000376	   -0.001221	   -0.000845	   -0.001576	   -0.001388	   -0.002964	   -0.004738	    0.007492	    0.002753	   -0.015120	   -0.001323	   -0.016443	   -0.043452	    0.005041	   -0.038411
     9.750	0	0	    0	   -0.006898	    0.004044	   -0.002854	   -0.008495	    0.003493	   -0.005002	   -0.002612	   -0.003114	   -0.005726	   -0.006571	   -0.004072	   -0.010643	   -0.000236	    0.010392	    0.010156	   -0.003563	    0.017694	    0.014131	   -0.010708	   -0.027386	   -0.038094	   -0.023521	    0.002028	   -0.021493	   -0.013103	    0.002867	   -0.010236	   -0.001483	    0.006472	    0.004989	   -0.007514	   -0.000578	   -0.008093	   -0.005835	    0.004515	   -0.001320	   -0.004863	    0.008814	    0.003950	   -0.032076	    0.008312	   -0.023764	    0.031684	   -0.002404	    0.029279	   -0.040141	   -0.015798	   -0.055939	   -0.004764	    0.005076	    0.000312	   -0.000942	    0.001173	    0.000232	   -0.003315	   -0.001416	   -0.004731	   -0.009129	    0.008440	   -0.000689	   -0.045363	   -0.017270	   -0.062633	   -0.030726	   -0.058503	   -0.089229
     9.825	0	0	    0	   -0.016607	   -0.004488	   -0.021095	   -0.011212	    0.000306	   -0.010906	   -0.008015	    0.000250	   -0.007766	   -0.011332	   -0.004034	   -0.015366	   -0.001440	    0.011282	    0.009842	   -0.001987	    0.010021	    0.008034	    0.033966	   -0.055475	   -0.021509	   -0.049390	   -0.023598	   -0.072987	   -0.014471	    0.000943	   -0.013527	    0.014527	   -0.022315	   -0.007787	   -0.009252	   -0.001318	   -0.010571	   -0.007232	    0.004107	   -0.003125	   -0.007530	    0.010292	    0.002762	   -0.046532	   -0.002118	   -0.048650	    0.045426	    0.023385	    0.068810	   -0.058736	   -0.035298	   -0.094034	   -0.010455	    0.000386	   -0.010069	    0.002934	   -0.006125	   -0.003191	   -0.005139	   -0.002490	   -0.007629	   -0.016944	    0.003223	   -0.013722	   -0.079784	   -0.063483	   -0.143267	    0.038383	   -0.011947	    0.026436
     9.900	0	0	    0	   -0.013988	   -0.015737	   -0.029725	   -0.012906	    0.000317	   -0.012589	   -0.013399	    0.006538	   -0.006861	   -0.011672	   -0.003605	   -0.015277	   -0.000846	    0.013115	    0.012268	   -0.007450	    0.003728	   -0.003722	    0.033220	   -0.048156	   -0.014936	   -0.054510	   -0.042200	   -0.096709	   -0.017655	    0.002931	   -0.014723	   -0.009931	    0.004892	   -0.005039	   -0.011098	   -0.001030	   -0.012128	   -0.009447	    0.005049	   -0.004398	   -0.014214	    0.013181	   -0.001034	   -0.060844	    0.004498	   -0.056346	    0.000336	    0.096061	    0.096397	   -0.066767	   -0.048283	   -0.115050	   -0.004895	   -0.004214	   -0.009109	   -0.003557	    0.000907	   -0.002650	   -0.006932	   -0.001740	   -0.008671	   -0.020603	    0.001645	   -0.018958	   -0.084661	   -0.080850	   -0.165511	    0.017066	    0.037484	    0.054549
