 [File Information]      		 [Data Line]	36
Measured Date	2024/05/27 093353
ID		Version	11.0
Name	oceane_1	[HeaderType]	11.0/11.0
Comment	
[Measurement Info.]
Holder Location	       0
Block Design	Off     
Pre.Rest Time	       0
Task Time	       0
Pos.Rest Time	       0
Loop	       0
Averaging	       1
Total Points	     816
[.INF File]
Filename	Cognitive1.INF
[Condition-1]
HV Switching	OFF
 R1 ,R2 ,R3 ,R4 ,R5 ,R6 ,R7 ,R8 
 120.00, 70.00,120.00,100.00, 90.00, 70.00,120.00,120.00
 Gain(X1,X4,X16,X64)
 R1 ,R2 ,R3 ,R4 ,R5 ,R6 ,R7 ,R8 
 1,1,1,1,1,1,1,1
[Analysis Condition]
Smoothed Type	None            
Smoothed Points	       0
Smoothed Loop	       0
Baseline Method	None            
Baseline location	
[Text Info.]
Output Mode	Continious      	Task No.		Data Type	Hb      
Time Range	    0.00	   61.13	Averaing	1
(1,3)(5,3)(5,7)(2,7)(2,4)(6,4)(6,8)(1,1)(3,3)(5,5)(7,7)(2,2)(4,4)(6,6)(8,8)(3,1)(3,5)(7,5)(7,2)(4,2)(4,6)(8,6)
         	     	     	     	    ch- 1	    ch- 1	    ch- 1	    ch- 2	    ch- 2	    ch- 2	    ch- 3	    ch- 3	    ch- 3	    ch- 4	    ch- 4	    ch- 4	    ch- 5	    ch- 5	    ch- 5	    ch- 6	    ch- 6	    ch- 6	    ch- 7	    ch- 7	    ch- 7	    ch- 8	    ch- 8	    ch- 8	    ch- 9	    ch- 9	    ch- 9	    ch-10	    ch-10	    ch-10	    ch-11	    ch-11	    ch-11	    ch-12	    ch-12	    ch-12	    ch-13	    ch-13	    ch-13	    ch-14	    ch-14	    ch-14	    ch-15	    ch-15	    ch-15	    ch-16	    ch-16	    ch-16	    ch-17	    ch-17	    ch-17	    ch-18	    ch-18	    ch-18	    ch-19	    ch-19	    ch-19	    ch-20	    ch-20	    ch-20	    ch-21	    ch-21	    ch-21	    ch-22	    ch-22	    ch-22
Time(sec)	Task	Mark	Count	    oxyHb   	  deoxyHb	  totalHb	    oxyHb   	  deoxyHb	  totalHb	    oxyHb   	  deoxyHb	  totalHb	    oxyHb   	  deoxyHb	  totalHb	    oxyHb   	  deoxyHb	  totalHb	    oxyHb   	  deoxyHb	  totalHb	    oxyHb   	  deoxyHb	  totalHb	    oxyHb   	  deoxyHb	  totalHb	    oxyHb   	  deoxyHb	  totalHb	    oxyHb   	  deoxyHb	  totalHb	    oxyHb   	  deoxyHb	  totalHb	    oxyHb   	  deoxyHb	  totalHb	    oxyHb   	  deoxyHb	  totalHb	    oxyHb   	  deoxyHb	  totalHb	    oxyHb   	  deoxyHb	  totalHb	    oxyHb   	  deoxyHb	  totalHb	    oxyHb   	  deoxyHb	  totalHb	    oxyHb   	  deoxyHb	  totalHb	    oxyHb   	  deoxyHb	  totalHb	    oxyHb   	  deoxyHb	  totalHb	    oxyHb   	  deoxyHb	  totalHb	    oxyHb   	  deoxyHb	  totalHb
     0.000	0	0Z	    0	    0.000000	    0.000000	    0.000000	    0.000000	    0.000000	    0.000000	    0.000000	    0.000000	    0.000000	    0.000000	    0.000000	    0.000000	    0.000000	    0.000000	    0.000000	    0.000000	    0.000000	    0.000000	    0.000000	    0.000000	    0.000000	    0.000000	    0.000000	    0.000000	    0.000000	    0.000000	    0.000000	    0.000000	    0.000000	    0.000000	    0.000000	    0.000000	    0.000000	    0.000000	    0.000000	    0.000000	    0.000000	    0.000000	    0.000000	    0.000000	    0.000000	    0.000000	    0.000000	    0.000000	    0.000000	    0.000000	    0.000000	    0.000000	    0.000000	    0.000000	    0.000000	    0.000000	    0.000000	    0.000000	    0.000000	    0.000000	    0.000000	    0.000000	    0.000000	    0.000000	    0.000000	    0.000000	    0.000000	    0.000000	    0.000000	    0.000000
     0.075	0	0	    0	    0.008572	   -0.007446	    0.001126	   -0.003045	    0.003343	    0.000299	   -0.007947	    0.008129	    0.000181	    0.002678	   -0.002346	    0.000332	    0.008643	   -0.006214	    0.002428	   -0.011511	    0.030508	    0.018997	   -0.028984	    0.044341	    0.015357	   -0.000700	   -0.000473	   -0.001173	   -0.000226	    0.000995	    0.000769	   -0.019829	    0.022770	    0.002941	    0.001135	   -0.000166	    0.000969	    0.000223	   -0.001382	   -0.001159	   -0.001544	    0.004970	    0.003426	    0.020332	   -0.023049	   -0.002716	    0.032199	   -0.048302	   -0.016103	    0.004272	   -0.002589	    0.001684	   -0.002886	    0.005591	    0.002705	    0.002663	   -0.001343	    0.001320	    0.000404	    0.000873	    0.001277	    0.002403	    0.000950	    0.003353	    0.016003	    0.005973	    0.021975	   -0.042649	   -0.053169	   -0.095817
     0.150	0	0	    0	    0.016334	   -0.005177	    0.011157	    0.002145	   -0.002033	    0.000112	    0.001974	   -0.001579	    0.000395	   -0.000539	    0.003391	    0.002852	    0.000442	    0.003555	    0.003997	   -0.020450	    0.030227	    0.009777	    0.016523	    0.021352	    0.037876	    0.007452	   -0.006004	    0.001448	    0.002546	   -0.001831	    0.000715	   -0.003476	    0.012109	    0.008633	    0.001534	    0.000498	    0.002031	    0.000963	   -0.000320	    0.000643	    0.002020	   -0.004753	   -0.002732	    0.041748	    0.007590	    0.049338	   -0.011352	   -0.029643	   -0.040995	    0.027363	   -0.003629	    0.023734	    0.013818	   -0.012568	    0.001250	    0.002243	    0.000431	    0.002674	    0.000644	    0.000574	    0.001218	    0.007328	    0.002688	    0.010016	    0.059313	    0.026337	    0.085650	    0.031450	   -0.053158	   -0.021708
     0.225	0	0	    0	    0.036562	   -0.008502	    0.028060	    0.007145	    0.002193	    0.009338	    0.003316	    0.003035	    0.006351	    0.001981	    0.000205	    0.002186	    0.011540	   -0.013456	   -0.001916	   -0.034627	    0.041338	    0.006711	   -0.004845	    0.069699	    0.064854	    0.040819	    0.021432	    0.062251	    0.003241	    0.000730	    0.003972	   -0.001903	    0.017779	    0.015877	    0.002294	    0.001030	    0.003325	    0.003104	   -0.002022	    0.001082	    0.003438	   -0.009254	   -0.005816	    0.048375	    0.029336	    0.077711	   -0.005503	   -0.031009	   -0.036512	    0.053145	    0.043942	    0.097087	    0.009124	   -0.002202	    0.006922	    0.001280	    0.001631	    0.002911	    0.000931	    0.001390	    0.002321	    0.010914	    0.007138	    0.018052	    0.081476	    0.089299	    0.170775	   -0.015774	    0.013899	   -0.001874
     0.300	0	0	    0	    0.029431	    0.003259	    0.032690	    0.002521	    0.005748	    0.008269	   -0.005400	    0.007611	    0.002210	    0.002010	    0.001842	    0.003852	    0.006778	   -0.012017	   -0.005239	   -0.035056	    0.036282	    0.001226	   -0.060645	    0.074787	    0.014142	    0.033590	    0.052843	    0.086434	    0.003786	    0.000495	    0.004281	   -0.007718	    0.019620	    0.011902	    0.000727	    0.000634	    0.001361	    0.001939	   -0.000964	    0.000975	    0.002957	   -0.011975	   -0.009018	    0.021623	    0.032608	    0.054231	   -0.043585	   -0.052647	   -0.096232	    0.042708	    0.050296	    0.093003	    0.005607	    0.001258	    0.006865	   -0.002314	    0.003635	    0.001322	   -0.000349	    0.000800	    0.000451	    0.010453	    0.006800	    0.017253	    0.050368	    0.098807	    0.149175	   -0.087254	   -0.041388	   -0.128642
     0.375	0	0	    0	    0.018410	    0.008149	    0.026559	   -0.003515	    0.006293	    0.002778	   -0.011371	    0.010171	   -0.001200	    0.001836	    0.001015	    0.002851	    0.005025	   -0.013379	   -0.008354	   -0.028202	    0.035181	    0.006979	   -0.087831	    0.046154	   -0.041677	    0.023776	    0.050578	    0.074353	   -0.002263	    0.001790	   -0.000473	   -0.012934	    0.012901	   -0.000033	    0.001205	   -0.000820	    0.000385	    0.001125	   -0.001617	   -0.000492	   -0.000215	   -0.009944	   -0.010159	    0.013332	    0.024263	    0.037595	   -0.022949	   -0.064880	   -0.087829	    0.015646	    0.036988	    0.052634	    0.008969	   -0.006941	    0.002028	   -0.004661	    0.001362	   -0.003299	   -0.003145	    0.000435	   -0.002710	    0.002806	    0.006460	    0.009266	    0.020053	    0.066109	    0.086161	   -0.082664	   -0.096646	   -0.179309
     0.450	0	0	    0	    0.001228	    0.011320	    0.012548	   -0.007764	    0.006010	   -0.001754	   -0.011221	    0.008227	   -0.002994	   -0.005158	    0.004448	   -0.000710	   -0.000414	    0.000545	    0.000131	   -0.024304	    0.038785	    0.014482	   -0.083495	    0.066962	   -0.016532	   -0.009512	    0.023228	    0.013716	   -0.005037	    0.000863	   -0.004174	   -0.030413	    0.031606	    0.001194	   -0.002870	    0.000589	   -0.002281	   -0.000901	    0.000234	   -0.000667	   -0.003328	   -0.001927	   -0.005255	   -0.001129	    0.010142	    0.009013	    0.007808	   -0.051116	   -0.043308	   -0.000740	    0.008853	    0.008113	   -0.006322	    0.000704	   -0.005618	   -0.003116	    0.001811	   -0.001305	   -0.003911	   -0.000496	   -0.004407	   -0.003105	    0.002569	   -0.000536	   -0.008189	    0.027558	    0.019369	   -0.028196	   -0.058439	   -0.086635
     0.525	0	0	    0	    0.013347	   -0.004016	    0.009332	   -0.009841	    0.005411	   -0.004430	   -0.010453	    0.006834	   -0.003619	   -0.005198	    0.000989	   -0.004209	    0.003620	   -0.001098	    0.002522	   -0.024576	    0.027809	    0.003234	   -0.046458	    0.044945	   -0.001513	   -0.007682	    0.003144	   -0.004538	   -0.005638	   -0.000335	   -0.005973	   -0.026576	    0.026827	    0.000251	   -0.004533	   -0.000476	   -0.005009	   -0.001999	    0.000538	   -0.001461	   -0.003299	   -0.002104	   -0.005403	   -0.001019	   -0.011733	   -0.012752	    0.015385	   -0.034951	   -0.019566	   -0.005890	   -0.000747	   -0.006637	    0.000221	   -0.007517	   -0.007296	   -0.000753	   -0.003145	   -0.003898	   -0.004531	   -0.001286	   -0.005817	   -0.004912	   -0.000070	   -0.004982	   -0.013530	    0.008454	   -0.005076	   -0.002990	   -0.029600	   -0.032591
     0.600	0	0	    0	    0.012685	   -0.017744	   -0.005059	   -0.005996	   -0.001912	   -0.007908	   -0.011940	   -0.000888	   -0.012827	   -0.005263	   -0.002621	   -0.007885	    0.003794	   -0.005395	   -0.001601	   -0.009415	    0.005210	   -0.004205	    0.001840	   -0.013013	   -0.011173	   -0.007077	   -0.007056	   -0.014133	   -0.010200	    0.000493	   -0.009707	   -0.006020	    0.000202	   -0.005818	   -0.007311	   -0.000499	   -0.007810	   -0.002870	   -0.001242	   -0.004112	   -0.008277	    0.000756	   -0.007520	   -0.004838	   -0.013450	   -0.018287	   -0.000610	    0.007662	    0.007052	   -0.013568	   -0.002712	   -0.016280	   -0.006797	   -0.000141	   -0.006938	   -0.001846	   -0.003763	   -0.005609	   -0.006368	   -0.000425	   -0.006793	   -0.006344	   -0.001092	   -0.007436	   -0.017565	    0.001149	   -0.016416	   -0.001934	   -0.019971	   -0.021905
     0.675	0	0	    0	    0.000863	   -0.010349	   -0.009487	   -0.011901	    0.000180	   -0.011721	   -0.011148	    0.003755	   -0.007394	   -0.006703	    0.001043	   -0.005660	   -0.000802	    0.002170	    0.001368	   -0.019797	    0.019086	   -0.000711	   -0.024945	    0.006092	   -0.018853	   -0.015152	   -0.002526	   -0.017678	   -0.009379	   -0.002505	   -0.011883	   -0.018244	    0.005983	   -0.012261	   -0.005796	   -0.002074	   -0.007870	   -0.004885	   -0.000374	   -0.005259	   -0.011864	    0.003954	   -0.007910	   -0.022134	   -0.000329	   -0.022463	   -0.015419	    0.008467	   -0.006952	   -0.017427	   -0.003927	   -0.021354	   -0.006379	   -0.004012	   -0.010391	   -0.006220	   -0.000668	   -0.006888	   -0.006099	   -0.000932	   -0.007031	   -0.009560	    0.000701	   -0.008858	   -0.019983	   -0.001093	   -0.021076	   -0.028185	   -0.005100	   -0.033286
     0.750	0	0	    0	    0.003733	   -0.006416	   -0.002684	   -0.012206	   -0.000062	   -0.012268	   -0.015103	    0.000467	   -0.014636	   -0.005563	   -0.001628	   -0.007192	   -0.001657	   -0.000821	   -0.002478	   -0.027909	    0.033834	    0.005925	   -0.068236	    0.058417	   -0.009818	   -0.019201	   -0.003353	   -0.022554	   -0.013694	   -0.000418	   -0.014112	   -0.019665	    0.016955	   -0.002710	   -0.005434	   -0.001885	   -0.007319	   -0.006798	   -0.002487	   -0.009285	   -0.011785	    0.002884	   -0.008901	   -0.003963	   -0.022838	   -0.026801	    0.006276	   -0.062042	   -0.055766	   -0.014490	   -0.006644	   -0.021134	   -0.001695	   -0.008472	   -0.010167	   -0.006156	    0.000377	   -0.005778	   -0.007356	    0.000619	   -0.006737	   -0.008328	   -0.002244	   -0.010572	   -0.005485	    0.002609	   -0.002877	   -0.075091	   -0.051936	   -0.127027
     0.825	0	0	    0	    0.010198	   -0.008648	    0.001550	   -0.008536	   -0.001283	   -0.009819	   -0.007988	    0.001126	   -0.006862	   -0.004772	   -0.001604	   -0.006377	   -0.002121	   -0.004844	   -0.006965	   -0.032781	    0.027917	   -0.004864	   -0.014075	    0.033348	    0.019273	   -0.007520	   -0.006521	   -0.014041	   -0.014239	   -0.000662	   -0.014902	   -0.014288	    0.013444	   -0.000844	   -0.004963	   -0.000865	   -0.005828	   -0.006329	   -0.002100	   -0.008429	   -0.015969	   -0.003518	   -0.019487	    0.012162	    0.010082	    0.022243	   -0.028076	   -0.042102	   -0.070178	    0.006651	    0.003411	    0.010062	   -0.005828	    0.003946	   -0.001883	   -0.001302	   -0.000517	   -0.001819	   -0.005140	   -0.000036	   -0.005176	   -0.006430	    0.002066	   -0.004364	    0.041488	    0.026540	    0.068027	   -0.007366	   -0.061639	   -0.069005
     0.900	0	0	    0	    0.018709	   -0.002045	    0.016665	    0.003070	    0.000956	    0.004027	   -0.004726	    0.009449	    0.004723	   -0.002067	    0.000746	   -0.001321	   -0.002458	   -0.009614	   -0.012073	   -0.042518	    0.042818	    0.000300	   -0.051617	    0.092929	    0.041312	    0.031518	    0.022256	    0.053774	   -0.002974	   -0.001804	   -0.004778	   -0.013709	    0.024608	    0.010900	   -0.000895	    0.000479	   -0.000416	   -0.004653	   -0.003030	   -0.007683	   -0.005968	   -0.011893	   -0.017861	    0.011485	    0.032562	    0.044046	   -0.039324	   -0.017319	   -0.056643	    0.040231	    0.046606	    0.086837	    0.004236	   -0.003456	    0.000780	   -0.004199	    0.005205	    0.001006	   -0.002865	    0.001614	   -0.001252	    0.003135	    0.006114	    0.009250	    0.063894	    0.092564	    0.156458	   -0.062243	    0.018865	   -0.043378
     0.975	0	0	    0	    0.015649	    0.011623	    0.027271	    0.001731	    0.006041	    0.007771	    0.000872	    0.004709	    0.005581	    0.000822	    0.000628	    0.001449	    0.005719	   -0.015955	   -0.010237	   -0.033014	    0.036668	    0.003654	   -0.052351	    0.058795	    0.006444	    0.027970	    0.051746	    0.079716	    0.000862	    0.000445	    0.001307	   -0.008370	    0.020573	    0.012203	   -0.000409	    0.000460	    0.000051	   -0.001566	   -0.001505	   -0.003071	    0.000734	   -0.014718	   -0.013984	    0.001327	    0.037806	    0.039133	   -0.078693	   -0.031254	   -0.109947	    0.034613	    0.054554	    0.089167	    0.009223	   -0.007808	    0.001415	   -0.003444	    0.003825	    0.000381	   -0.002069	    0.001044	   -0.001025	    0.007556	    0.008163	    0.015720	    0.048180	    0.101163	    0.149343	   -0.126689	   -0.023774	   -0.150463
     1.050	0	0	    0	    0.016607	    0.016737	    0.033344	    0.002536	    0.004817	    0.007353	    0.001770	    0.004943	    0.006714	   -0.001196	    0.002554	    0.001357	   -0.000528	   -0.008037	   -0.008565	   -0.017969	    0.030972	    0.013004	   -0.084575	    0.046908	   -0.037667	    0.012873	    0.057236	    0.070109	   -0.004358	    0.004243	   -0.000115	   -0.004411	    0.005618	    0.001207	   -0.000750	   -0.000410	   -0.001160	   -0.001393	   -0.000734	   -0.002128	   -0.003774	   -0.008460	   -0.012235	    0.004799	    0.027683	    0.032481	   -0.043866	   -0.070353	   -0.114219	    0.009974	    0.041016	    0.050990	    0.004415	   -0.004110	    0.000304	   -0.002159	   -0.001780	   -0.003939	   -0.003047	    0.000036	   -0.003011	    0.003330	    0.008955	    0.012285	    0.017697	    0.073183	    0.090881	   -0.114098	   -0.085546	   -0.199644
     1.125	0	0	    0	    0.015357	    0.000433	    0.015790	   -0.005080	    0.004820	   -0.000260	   -0.006490	    0.006747	    0.000258	   -0.002349	    0.000689	   -0.001661	    0.000667	   -0.003795	   -0.003128	   -0.014195	    0.025233	    0.011038	   -0.052243	    0.036573	   -0.015669	   -0.008438	    0.022579	    0.014142	   -0.005139	    0.001393	   -0.003747	   -0.010196	    0.023894	    0.013698	   -0.002773	   -0.000228	   -0.003001	   -0.000464	   -0.001108	   -0.001572	    0.004045	   -0.011878	   -0.007834	   -0.004742	    0.010719	    0.005977	   -0.006108	   -0.043363	   -0.049471	    0.000798	    0.007927	    0.008724	   -0.003704	   -0.000708	   -0.004412	   -0.004073	    0.003003	   -0.001070	   -0.003940	   -0.000489	   -0.004429	   -0.002365	    0.003095	    0.000729	   -0.007515	    0.026142	    0.018627	   -0.034374	   -0.074093	   -0.108466
     1.200	0	0	    0	    0.012520	   -0.006419	    0.006102	   -0.005219	    0.002644	   -0.002575	   -0.006483	    0.000142	   -0.006341	   -0.005922	    0.000466	   -0.005457	    0.001282	    0.005495	    0.006777	   -0.015023	    0.018714	    0.003691	   -0.028359	    0.027533	   -0.000826	   -0.009203	    0.011364	    0.002161	   -0.006622	    0.002112	   -0.004510	   -0.027046	    0.029582	    0.002536	   -0.003994	   -0.000558	   -0.004551	   -0.001641	    0.001568	   -0.000073	   -0.005361	    0.002826	   -0.002535	   -0.006656	    0.000030	   -0.006627	   -0.013187	   -0.009514	   -0.022701	   -0.006663	    0.004171	   -0.002492	    0.000665	   -0.004776	   -0.004111	   -0.002160	    0.000620	   -0.001540	   -0.003774	   -0.000551	   -0.004325	   -0.004621	    0.002817	   -0.001804	   -0.015611	    0.013333	   -0.002278	   -0.033726	    0.009146	   -0.024580
     1.275	0	0	    0	    0.003098	   -0.009824	   -0.006726	   -0.011354	    0.006444	   -0.004910	   -0.012470	    0.013307	    0.000837	   -0.004930	    0.000855	   -0.004075	   -0.001206	    0.007406	    0.006200	   -0.032964	    0.042970	    0.010006	   -0.071328	    0.068761	   -0.002568	   -0.009736	    0.006491	   -0.003244	   -0.006883	   -0.000930	   -0.007813	   -0.018744	    0.019113	    0.000369	   -0.003596	   -0.001532	   -0.005127	   -0.003011	    0.001915	   -0.001096	   -0.007461	    0.003407	   -0.004055	   -0.028481	    0.018543	   -0.009938	   -0.011477	   -0.001487	   -0.012964	   -0.008305	   -0.000767	   -0.009071	   -0.003178	   -0.003312	   -0.006490	    0.003896	   -0.003709	    0.000186	   -0.004252	   -0.000116	   -0.004367	   -0.005299	    0.002107	   -0.003192	   -0.014087	    0.004095	   -0.009992	   -0.027919	   -0.000053	   -0.027972
     1.350	0	0	    0	   -0.002992	   -0.002123	   -0.005115	   -0.010370	    0.003090	   -0.007280	   -0.010872	    0.004718	   -0.006154	   -0.005307	   -0.000517	   -0.005825	    0.002354	    0.000557	    0.002910	   -0.028730	    0.037752	    0.009022	   -0.073817	    0.083705	    0.009888	   -0.011772	    0.006372	   -0.005401	   -0.009150	   -0.000198	   -0.009349	   -0.015692	    0.014863	   -0.000828	   -0.004463	   -0.000533	   -0.004997	   -0.004135	    0.000747	   -0.003387	   -0.008849	    0.004623	   -0.004226	   -0.008990	   -0.008823	   -0.017813	   -0.010741	   -0.039947	   -0.050688	   -0.011865	    0.000980	   -0.010885	   -0.008737	    0.002311	   -0.006426	   -0.005556	   -0.000676	   -0.006232	   -0.004146	    0.000564	   -0.003582	   -0.006114	    0.001049	   -0.005065	   -0.004610	    0.002729	   -0.001882	   -0.094813	   -0.013896	   -0.108710
     1.425	0	0	    0	    0.000637	   -0.000811	   -0.000175	   -0.006210	   -0.001036	   -0.007246	   -0.009533	    0.001746	   -0.007787	   -0.004805	   -0.001152	   -0.005958	   -0.003690	    0.003516	   -0.000175	   -0.031223	    0.039973	    0.008750	   -0.048845	    0.068834	    0.019989	   -0.010710	    0.000894	   -0.009815	   -0.010861	    0.000857	   -0.010004	   -0.015087	    0.013953	   -0.001135	   -0.005437	    0.000720	   -0.004716	   -0.004944	    0.000877	   -0.004066	   -0.013393	    0.002949	   -0.010444	    0.009923	    0.022581	    0.032504	   -0.038513	   -0.029626	   -0.068139	    0.000014	    0.005674	    0.005688	   -0.009016	    0.003202	   -0.005814	   -0.004725	    0.000595	   -0.004130	   -0.004486	    0.000945	   -0.003542	   -0.005120	    0.006509	    0.001389	    0.033855	    0.029655	    0.063511	   -0.024875	   -0.043723	   -0.068598
     1.500	0	0	    0	    0.018019	   -0.003810	    0.014208	   -0.005326	    0.002973	   -0.002353	   -0.010767	    0.005463	   -0.005304	    0.000538	   -0.006056	   -0.005519	    0.002396	   -0.011735	   -0.009339	   -0.037062	    0.038891	    0.001829	   -0.062760	    0.110173	    0.047413	    0.020606	    0.018554	    0.039160	   -0.009711	   -0.000923	   -0.010634	   -0.025678	    0.029033	    0.003356	   -0.005316	    0.000295	   -0.005021	   -0.004113	   -0.000869	   -0.004982	   -0.008545	   -0.009097	   -0.017642	    0.012601	    0.042490	    0.055091	   -0.044687	   -0.015191	   -0.059878	    0.038826	    0.035219	    0.074045	   -0.002171	    0.000739	   -0.001432	   -0.002932	   -0.002000	   -0.004931	   -0.006074	    0.001605	   -0.004469	   -0.000261	    0.006525	    0.006265	    0.053949	    0.096579	    0.150528	   -0.052471	    0.026146	   -0.026325
     1.575	0	0	    0	    0.018388	   -0.002509	    0.015879	   -0.006608	    0.004144	   -0.002463	   -0.008180	    0.003555	   -0.004625	   -0.004494	    0.000716	   -0.003778	    0.003303	   -0.014637	   -0.011334	   -0.042785	    0.037793	   -0.004992	   -0.081567	    0.095136	    0.013569	    0.020809	    0.046389	    0.067198	   -0.009551	   -0.000026	   -0.009577	   -0.016864	    0.017179	    0.000315	   -0.006359	    0.000516	   -0.005843	   -0.004242	   -0.000111	   -0.004353	   -0.010636	   -0.010677	   -0.021313	   -0.008481	    0.055954	    0.047473	   -0.097944	   -0.011999	   -0.109943	    0.031545	    0.049254	    0.080799	   -0.007070	    0.000742	   -0.006328	   -0.010481	    0.002652	   -0.007830	   -0.007872	    0.001679	   -0.006192	   -0.001135	    0.007462	    0.006328	    0.038923	    0.107157	    0.146080	   -0.136420	    0.011381	   -0.125039
     1.650	0	0	    0	    0.022318	    0.003188	    0.025506	   -0.011261	    0.007841	   -0.003420	   -0.020754	    0.012708	   -0.008045	   -0.001113	   -0.002943	   -0.004055	    0.000736	   -0.012506	   -0.011770	   -0.048904	    0.048882	   -0.000022	   -0.132049	    0.098731	   -0.033318	    0.011704	    0.053215	    0.064919	   -0.014000	    0.002437	   -0.011563	   -0.033864	    0.042073	    0.008209	   -0.006088	   -0.001048	   -0.007136	   -0.005946	   -0.000523	   -0.006469	   -0.012252	   -0.010424	   -0.022676	   -0.016576	    0.048542	    0.031966	   -0.085527	   -0.051329	   -0.136856	   -0.002324	    0.047689	    0.045366	   -0.008085	    0.002517	   -0.005569	   -0.007978	   -0.000201	   -0.008180	   -0.008997	    0.000624	   -0.008373	   -0.005688	    0.007636	    0.001948	    0.001009	    0.083567	    0.084576	   -0.165779	   -0.070426	   -0.236205
     1.725	0	0	    0	    0.003864	    0.003691	    0.007555	   -0.014961	    0.005039	   -0.009921	   -0.027214	    0.020290	   -0.006924	   -0.007724	    0.001105	   -0.006619	    0.003741	   -0.012258	   -0.008517	   -0.035723	    0.041696	    0.005973	   -0.118119	    0.062550	   -0.055569	   -0.024111	    0.035809	    0.011698	   -0.019585	    0.000584	   -0.019001	   -0.031649	    0.024446	   -0.007203	   -0.008243	   -0.000973	   -0.009215	   -0.006453	   -0.000382	   -0.006835	   -0.013746	   -0.004980	   -0.018726	   -0.031703	    0.031635	   -0.000068	   -0.066055	   -0.010325	   -0.076380	   -0.023237	    0.016028	   -0.007210	   -0.016556	   -0.001059	   -0.017615	   -0.014220	    0.003637	   -0.010582	   -0.010826	    0.000055	   -0.010770	   -0.014355	    0.005554	   -0.008800	   -0.032243	    0.038165	    0.005922	   -0.125579	   -0.062348	   -0.187927
     1.800	0	0	    0	   -0.000382	   -0.011259	   -0.011641	   -0.010911	   -0.003762	   -0.014673	   -0.015753	    0.002563	   -0.013190	   -0.008690	   -0.003372	   -0.012063	   -0.000470	   -0.004039	   -0.004510	   -0.018403	    0.014565	   -0.003838	   -0.052077	    0.009830	   -0.042247	   -0.025074	    0.008116	   -0.016958	   -0.019917	   -0.002361	   -0.022278	   -0.006382	   -0.012371	   -0.018752	   -0.008560	   -0.001867	   -0.010428	   -0.007965	    0.001826	   -0.006139	   -0.017529	   -0.000731	   -0.018260	   -0.026641	    0.000056	   -0.026585	   -0.028979	   -0.045525	   -0.074503	   -0.025909	    0.003624	   -0.022285	   -0.014912	   -0.001767	   -0.016679	   -0.013576	    0.003643	   -0.009934	   -0.008816	   -0.000261	   -0.009077	   -0.015445	    0.003572	   -0.011873	   -0.028470	    0.013699	   -0.014772	   -0.065078	   -0.023028	   -0.088107
     1.875	0	0	    0	    0.000838	   -0.005291	   -0.004453	   -0.008745	    0.002979	   -0.005766	   -0.011770	    0.007154	   -0.004617	   -0.009333	    0.000080	   -0.009253	   -0.005477	    0.008726	    0.003248	   -0.015113	    0.021686	    0.006573	   -0.054506	    0.056270	    0.001764	   -0.011385	    0.002788	   -0.008597	   -0.011050	   -0.000829	   -0.011879	   -0.018970	    0.017351	   -0.001619	   -0.005770	   -0.000564	   -0.006333	   -0.005228	    0.001245	   -0.003983	   -0.007980	   -0.002644	   -0.010624	   -0.014255	    0.001405	   -0.012850	   -0.015287	   -0.023944	   -0.039231	   -0.012634	    0.000718	   -0.011916	   -0.009291	    0.004946	   -0.004344	   -0.001452	   -0.002608	   -0.004060	   -0.005531	    0.000378	   -0.005152	   -0.009398	    0.004049	   -0.005349	   -0.015499	    0.011637	   -0.003863	   -0.070786	    0.016449	   -0.054337
     1.950	0	0	    0	   -0.002450	    0.002244	   -0.000206	   -0.003853	    0.003067	   -0.000786	   -0.008303	    0.008566	    0.000263	   -0.004361	    0.001579	   -0.002782	   -0.001348	    0.004638	    0.003290	   -0.013591	    0.030217	    0.016625	   -0.044500	    0.049639	    0.005138	   -0.016789	    0.014055	   -0.002734	   -0.005436	    0.001116	   -0.004320	   -0.007434	    0.005024	   -0.002411	   -0.004052	    0.001192	   -0.002860	   -0.005920	    0.002107	   -0.003812	   -0.005935	    0.001617	   -0.004318	    0.002016	    0.005118	    0.007134	   -0.029658	   -0.013480	   -0.043138	   -0.004371	    0.000646	   -0.003726	   -0.000886	   -0.006189	   -0.007074	   -0.000816	   -0.001803	   -0.002619	   -0.003560	    0.001417	   -0.002143	   -0.004001	    0.002438	   -0.001563	    0.016095	    0.009013	    0.025108	   -0.069548	   -0.025238	   -0.094786
     2.025	0	0	    0	    0.022853	   -0.015170	    0.007683	   -0.001335	    0.002310	    0.000975	   -0.002372	    0.002531	    0.000159	    0.001965	    0.000015	    0.001981	    0.007141	   -0.010204	   -0.003063	   -0.029865	    0.038207	    0.008342	   -0.054926	    0.089337	    0.034411	    0.006223	   -0.001613	    0.004610	   -0.003406	    0.000814	   -0.002592	   -0.024570	    0.025348	    0.000778	   -0.002251	    0.001625	   -0.000626	   -0.002805	   -0.002808	   -0.005613	   -0.004265	   -0.003310	   -0.007575	    0.022245	    0.037937	    0.060183	   -0.051580	   -0.013460	   -0.065040	    0.022075	    0.006766	    0.028841	   -0.001431	   -0.000153	   -0.001583	   -0.007436	    0.003562	   -0.003874	   -0.002503	    0.001935	   -0.000568	    0.003185	    0.005589	    0.008774	    0.062332	    0.054111	    0.116443	   -0.027541	    0.017236	   -0.010305
     2.100	0	0	    0	    0.021774	   -0.000598	    0.021177	    0.004022	    0.003407	    0.007429	    0.005564	   -0.002034	    0.003530	    0.002951	    0.000442	    0.003393	    0.005039	   -0.010436	   -0.005397	   -0.029897	    0.033609	    0.003711	   -0.012943	    0.063493	    0.050550	    0.031933	    0.026800	    0.058733	   -0.002800	    0.005550	    0.002750	   -0.002001	    0.007154	    0.005153	   -0.000833	    0.001730	    0.000897	   -0.001340	   -0.001984	   -0.003324	   -0.005140	   -0.001944	   -0.007084	    0.027184	    0.051188	    0.078373	   -0.062341	    0.010919	   -0.051421	    0.039288	    0.055099	    0.094387	    0.001439	    0.000150	    0.001589	   -0.006533	    0.007236	    0.000703	   -0.002459	    0.002231	   -0.000229	    0.004790	    0.009884	    0.014675	    0.065223	    0.111788	    0.177010	   -0.074816	    0.053221	   -0.021595
     2.175	0	0	    0	    0.017187	    0.010586	    0.027773	    0.000979	    0.008089	    0.009068	   -0.010317	    0.016410	    0.006093	    0.001449	    0.003184	    0.004633	   -0.000846	   -0.002440	   -0.003286	   -0.037985	    0.047434	    0.009449	   -0.101113	    0.112640	    0.011527	    0.024685	    0.057915	    0.082600	   -0.001588	    0.004617	    0.003029	   -0.033431	    0.050606	    0.017175	    0.000101	    0.000236	    0.000337	   -0.001468	   -0.000129	   -0.001597	   -0.002001	   -0.007584	   -0.009585	   -0.001890	    0.065414	    0.063524	   -0.066733	   -0.041487	   -0.108220	    0.033401	    0.056502	    0.089902	    0.006456	    0.000116	    0.006571	    0.000104	    0.000233	    0.000337	   -0.002099	    0.001417	   -0.000682	    0.003785	    0.010124	    0.013909	    0.037993	    0.115641	    0.153634	   -0.125931	   -0.013154	   -0.139085
     2.250	0	0	    0	    0.007844	    0.017032	    0.024876	   -0.001059	    0.005651	    0.004593	   -0.003007	    0.006859	    0.003852	   -0.000632	    0.004974	    0.004342	   -0.002559	   -0.007773	   -0.010332	   -0.021547	    0.038198	    0.016651	   -0.110905	    0.076877	   -0.034028	    0.011352	    0.061955	    0.073308	   -0.004202	    0.004668	    0.000466	   -0.016446	    0.027092	    0.010646	   -0.000291	   -0.000008	   -0.000298	   -0.002954	   -0.000947	   -0.003901	   -0.005130	   -0.004198	   -0.009328	   -0.007721	    0.052186	    0.044465	   -0.033175	   -0.024330	   -0.057505	    0.007865	    0.046640	    0.054505	   -0.011721	    0.008976	   -0.002744	   -0.000677	   -0.002389	   -0.003067	   -0.003124	    0.000321	   -0.002803	   -0.001922	    0.009408	    0.007486	    0.011787	    0.082464	    0.094251	   -0.086042	   -0.065365	   -0.151407
     2.325	0	0	    0	    0.002985	    0.004772	    0.007758	   -0.004602	    0.003596	   -0.001007	   -0.007693	    0.006935	   -0.000757	   -0.000291	    0.001616	    0.001326	   -0.000709	   -0.003793	   -0.004503	   -0.021665	    0.031703	    0.010038	   -0.052242	    0.047264	   -0.004978	   -0.009404	    0.026999	    0.017594	   -0.005136	    0.001964	   -0.003172	   -0.025914	    0.024531	   -0.001383	   -0.001397	   -0.000305	   -0.001702	   -0.002092	   -0.001038	   -0.003130	   -0.003434	   -0.001534	   -0.004968	   -0.009888	    0.015548	    0.005660	   -0.006149	   -0.016643	   -0.022792	   -0.003546	    0.015205	    0.011659	   -0.007722	    0.000540	   -0.007182	   -0.006424	    0.003148	   -0.003277	   -0.004250	    0.000041	   -0.004209	   -0.006395	    0.003449	   -0.002946	   -0.014644	    0.030009	    0.015365	   -0.037483	    0.006223	   -0.031259
     2.400	0	0	    0	    0.000814	   -0.002729	   -0.001915	   -0.009902	    0.005064	   -0.004838	   -0.016912	    0.013558	   -0.003353	   -0.005173	    0.003226	   -0.001947	   -0.004783	    0.004324	   -0.000460	   -0.015273	    0.014372	   -0.000901	   -0.059000	    0.053539	   -0.005461	   -0.013743	    0.012584	   -0.001159	   -0.009408	    0.003711	   -0.005698	   -0.023160	    0.018524	   -0.004636	   -0.003888	    0.000535	   -0.003353	   -0.003105	    0.000728	   -0.002377	   -0.005107	    0.000285	   -0.004822	   -0.008403	    0.009694	    0.001291	    0.004861	    0.021961	    0.026822	   -0.006528	    0.002521	   -0.004007	   -0.009328	   -0.002180	   -0.011508	   -0.004253	   -0.002270	   -0.006523	   -0.004561	   -0.000555	   -0.005116	   -0.007399	    0.001166	   -0.006233	   -0.017653	    0.011601	   -0.006053	   -0.028867	    0.035962	    0.007095
     2.475	0	0	    0	   -0.007265	    0.005803	   -0.001462	   -0.010018	    0.004142	   -0.005876	   -0.012934	    0.005545	   -0.007389	   -0.005513	    0.001386	   -0.004126	   -0.005193	    0.005416	    0.000223	   -0.020793	    0.013859	   -0.006934	   -0.055878	    0.041255	   -0.014623	   -0.015706	    0.010981	   -0.004725	   -0.011414	    0.004080	   -0.007334	   -0.020260	    0.006131	   -0.014129	   -0.005660	   -0.000323	   -0.005983	   -0.004718	    0.000398	   -0.004319	   -0.011205	    0.003375	   -0.007830	   -0.013666	    0.001770	   -0.011897	    0.014333	    0.025500	    0.039833	   -0.016029	    0.003916	   -0.012114	   -0.008491	   -0.001782	   -0.010273	   -0.005806	   -0.000033	   -0.005840	   -0.005963	   -0.000987	   -0.006950	   -0.010384	    0.000291	   -0.010093	   -0.022385	    0.007056	   -0.015330	   -0.035272	    0.040272	    0.005000
     2.550	0	0	    0	   -0.001941	    0.000755	   -0.001186	   -0.010454	    0.001738	   -0.008715	   -0.010633	    0.003548	   -0.007085	   -0.003978	    0.000682	   -0.003296	   -0.007501	    0.004831	   -0.002669	   -0.019089	    0.018192	   -0.000897	   -0.055277	    0.057584	    0.002307	   -0.017156	    0.001990	   -0.015167	   -0.013074	    0.002284	   -0.010791	   -0.023035	    0.012823	   -0.010211	   -0.006321	   -0.000649	   -0.006970	   -0.006493	   -0.001011	   -0.007504	   -0.013817	    0.004667	   -0.009150	   -0.028666	    0.003111	   -0.025556	   -0.022544	   -0.034622	   -0.057166	   -0.013930	   -0.005517	   -0.019446	   -0.008439	   -0.005192	   -0.013631	   -0.010074	    0.003290	   -0.006784	   -0.006163	    0.000012	   -0.006151	   -0.011655	   -0.000483	   -0.012138	   -0.015788	    0.003286	   -0.012501	   -0.093177	    0.025643	   -0.067534
     2.625	0	0	    0	    0.015644	   -0.023172	   -0.007528	   -0.012966	    0.002124	   -0.010842	   -0.016213	    0.006155	   -0.010059	   -0.001817	   -0.002256	   -0.004074	   -0.005355	   -0.002454	   -0.007808	   -0.048068	    0.043358	   -0.004710	   -0.046459	    0.034254	   -0.012205	   -0.011838	   -0.007371	   -0.019209	   -0.015275	    0.000020	   -0.015255	   -0.015646	    0.003619	   -0.012027	   -0.006764	    0.000218	   -0.006546	   -0.005458	   -0.003787	   -0.009245	   -0.012849	   -0.003611	   -0.016460	   -0.000389	    0.012109	    0.011720	   -0.073647	   -0.022414	   -0.096061	    0.000548	   -0.003330	   -0.002782	   -0.011799	    0.002860	   -0.008938	   -0.013380	    0.005423	   -0.007957	   -0.007717	    0.001875	   -0.005841	   -0.006724	    0.002438	   -0.004286	    0.021495	    0.027854	    0.049350	   -0.045435	   -0.026285	   -0.071720
     2.700	0	0	    0	    0.015826	    0.007917	    0.023742	   -0.006614	    0.004375	   -0.002239	   -0.010905	    0.006516	   -0.004389	   -0.004399	   -0.000430	   -0.004830	   -0.002882	   -0.009597	   -0.012480	   -0.044740	    0.032882	   -0.011858	   -0.074373	    0.100884	    0.026511	    0.017887	    0.028085	    0.045973	   -0.016115	    0.002616	   -0.013499	   -0.017235	    0.012796	   -0.004439	   -0.005465	   -0.000646	   -0.006111	   -0.006119	   -0.000901	   -0.007020	   -0.016709	   -0.006953	   -0.023662	    0.015035	    0.027472	    0.042507	   -0.051289	   -0.009012	   -0.060301	    0.031671	    0.041837	    0.073507	   -0.014033	    0.009471	   -0.004562	   -0.007869	    0.001334	   -0.006534	   -0.006836	    0.000721	   -0.006116	   -0.005771	    0.008941	    0.003170	    0.043383	    0.103407	    0.146790	   -0.062015	    0.041685	   -0.020330
     2.775	0	0	    0	    0.007150	    0.016118	    0.023268	   -0.006564	    0.003470	   -0.003094	   -0.012948	    0.003404	   -0.009544	   -0.006710	    0.000028	   -0.006682	   -0.001827	   -0.013295	   -0.015121	   -0.045953	    0.031682	   -0.014271	   -0.101022	    0.104112	    0.003089	    0.014709	    0.058883	    0.073592	   -0.014993	    0.000861	   -0.014133	   -0.026395	    0.028644	    0.002249	   -0.006811	   -0.000383	   -0.007194	   -0.006010	    0.000460	   -0.005550	   -0.013860	   -0.013161	   -0.027021	   -0.013324	    0.050858	    0.037534	   -0.106838	   -0.000050	   -0.106888	    0.024991	    0.053608	    0.078599	   -0.015631	    0.011513	   -0.004118	   -0.014838	    0.009225	   -0.005613	   -0.007616	    0.000871	   -0.006745	   -0.004929	    0.008212	    0.003283	    0.028862	    0.112189	    0.141052	   -0.159410	    0.038254	   -0.121156
     2.850	0	0	    0	    0.010393	    0.012903	    0.023296	   -0.005921	    0.006709	    0.000788	   -0.001060	    0.001310	    0.000250	   -0.002257	   -0.002525	   -0.004782	    0.001812	   -0.013301	   -0.011490	   -0.030232	    0.030303	    0.000071	   -0.102757	    0.055336	   -0.047421	    0.011858	    0.058149	    0.070006	   -0.012312	    0.001235	   -0.011077	   -0.025663	    0.021378	   -0.004285	   -0.003344	   -0.000735	   -0.004079	   -0.005383	    0.000344	   -0.005039	   -0.008760	   -0.014209	   -0.022969	   -0.010739	    0.038908	    0.028169	   -0.080870	   -0.043058	   -0.123928	    0.007916	    0.041212	    0.049128	   -0.004942	   -0.001507	   -0.006449	   -0.002653	   -0.003168	   -0.005821	   -0.005397	    0.000530	   -0.004867	   -0.002255	    0.008953	    0.006698	    0.008075	    0.085534	    0.093609	   -0.124585	   -0.054506	   -0.179091
     2.925	0	0	    0	   -0.000415	    0.012534	    0.012119	   -0.002781	    0.004730	    0.001950	    0.001810	    0.000854	    0.002665	   -0.003504	    0.000085	   -0.003419	    0.008500	   -0.007853	    0.000647	   -0.002469	    0.013514	    0.011045	   -0.053210	    0.034014	   -0.019196	   -0.008048	    0.036840	    0.028792	   -0.006077	   -0.001034	   -0.007111	   -0.008370	    0.020573	    0.012203	   -0.002390	   -0.000144	   -0.002534	   -0.002232	    0.001415	   -0.000817	    0.001303	   -0.009483	   -0.008180	    0.002457	    0.019166	    0.021623	   -0.022938	   -0.017228	   -0.040166	    0.003321	    0.009622	    0.012943	   -0.007810	    0.001628	   -0.006182	   -0.005822	    0.002372	   -0.003450	   -0.003200	   -0.000209	   -0.003408	   -0.004114	    0.007805	    0.003691	   -0.009930	    0.042935	    0.033005	   -0.049308	   -0.039652	   -0.088960
     3.000	0	0	    0	   -0.005944	    0.005849	   -0.000095	   -0.001534	    0.001047	   -0.000487	   -0.001232	    0.001084	   -0.000148	   -0.006523	    0.002664	   -0.003859	   -0.001211	    0.011034	    0.009824	   -0.005244	    0.011244	    0.006000	   -0.044887	    0.037744	   -0.007143	   -0.009937	    0.015726	    0.005789	   -0.006920	    0.001510	   -0.005410	   -0.021894	    0.022919	    0.001025	   -0.003688	    0.001006	   -0.002683	   -0.002176	    0.003146	    0.000970	   -0.002331	    0.000675	   -0.001656	   -0.002478	    0.004698	    0.002221	   -0.010900	   -0.008812	   -0.019713	   -0.002652	    0.005299	    0.002647	   -0.001918	   -0.000996	   -0.002914	    0.000819	   -0.000314	    0.000505	   -0.003404	    0.000482	   -0.002923	   -0.004664	    0.005045	    0.000381	   -0.012940	    0.022395	    0.009455	   -0.034691	    0.038516	    0.003825
     3.075	0	0	    0	    0.003888	   -0.008307	   -0.004419	   -0.009063	    0.006158	   -0.002905	   -0.013998	    0.016559	    0.002560	   -0.005138	    0.002768	   -0.002370	   -0.000654	    0.009086	    0.008433	   -0.031083	    0.036849	    0.005766	   -0.045634	    0.065082	    0.019448	   -0.006998	    0.010597	    0.003599	   -0.005656	   -0.000894	   -0.006549	   -0.041975	    0.048053	    0.006078	   -0.003586	    0.000036	   -0.003550	   -0.002154	    0.004315	    0.002160	   -0.004974	    0.001276	   -0.003697	   -0.007250	    0.014867	    0.007617	   -0.029496	    0.027197	   -0.002300	   -0.002518	   -0.001863	   -0.004381	    0.006575	   -0.016063	   -0.009488	   -0.004336	   -0.000635	   -0.004971	   -0.002952	    0.000209	   -0.002743	   -0.005394	    0.004728	   -0.000666	   -0.010948	    0.011937	    0.000989	   -0.026719	    0.042530	    0.015810
     3.150	0	0	    0	    0.002723	   -0.000899	    0.001823	   -0.008561	    0.005727	   -0.002833	   -0.007079	    0.003521	   -0.003558	   -0.001790	   -0.001466	   -0.003256	    0.004274	   -0.001893	    0.002381	   -0.019410	    0.025121	    0.005711	   -0.023607	    0.039692	    0.016085	   -0.007921	    0.006923	   -0.000998	   -0.005521	   -0.000952	   -0.006473	   -0.029096	    0.029727	    0.000631	   -0.001774	   -0.000799	   -0.002573	   -0.002202	    0.002180	   -0.000022	   -0.002584	   -0.002728	   -0.005312	   -0.011209	    0.007851	   -0.003358	   -0.018111	    0.013520	   -0.004591	   -0.005415	   -0.001249	   -0.006664	    0.009670	   -0.015642	   -0.005972	   -0.003393	    0.000581	   -0.002812	   -0.002460	    0.000279	   -0.002181	   -0.004484	    0.002955	   -0.001530	   -0.009661	    0.010414	    0.000753	   -0.023531	    0.019410	   -0.004121
     3.225	0	0	    0	    0.000132	    0.000674	    0.000807	   -0.007110	    0.002863	   -0.004247	   -0.010203	    0.005651	   -0.004552	   -0.005147	    0.002160	   -0.002987	    0.001549	    0.002737	    0.004286	   -0.017870	    0.025121	    0.007251	   -0.037987	    0.057287	    0.019300	   -0.012585	    0.009031	   -0.003554	   -0.007849	    0.001662	   -0.006187	   -0.010714	    0.002754	   -0.007959	   -0.002077	   -0.000002	   -0.002079	   -0.003315	    0.001393	   -0.001922	   -0.003179	   -0.001653	   -0.004832	    0.011497	    0.000019	    0.011516	   -0.007020	   -0.016838	   -0.023858	   -0.002380	   -0.001327	   -0.003707	   -0.004748	   -0.001307	   -0.006055	   -0.001665	   -0.000384	   -0.002050	   -0.001527	    0.000384	   -0.001143	   -0.001274	    0.003200	    0.001925	    0.012714	    0.019829	    0.032543	   -0.057954	   -0.015616	   -0.073571
     3.300	0	0	    0	    0.017591	   -0.012796	    0.004795	   -0.004841	    0.003235	   -0.001606	   -0.002619	   -0.000719	   -0.003338	   -0.000453	   -0.002124	   -0.002577	    0.009132	   -0.003242	    0.005890	   -0.038370	    0.042299	    0.003929	   -0.053638	    0.110445	    0.056807	    0.010992	   -0.000618	    0.010375	   -0.009047	    0.002338	   -0.006709	   -0.007446	    0.010701	    0.003254	   -0.002774	    0.000705	   -0.002070	   -0.001801	    0.000663	   -0.001138	   -0.004145	   -0.002861	   -0.007006	    0.023252	    0.034870	    0.058122	   -0.022030	   -0.027328	   -0.049358	    0.035678	    0.006796	    0.042473	   -0.001686	    0.001588	   -0.000098	   -0.005968	    0.002965	   -0.003003	   -0.002880	    0.001312	   -0.001568	    0.002806	    0.006460	    0.009266	    0.068779	    0.054544	    0.123323	   -0.014569	    0.026864	    0.012296
     3.375	0	0	    0	    0.010253	    0.012194	    0.022447	    0.000227	    0.002513	    0.002740	    0.006544	   -0.004595	    0.001949	   -0.001652	   -0.000607	   -0.002259	    0.007741	   -0.008615	   -0.000875	   -0.025832	    0.021158	   -0.004674	   -0.017153	    0.068851	    0.051698	    0.028011	    0.043615	    0.071626	   -0.006767	    0.002176	   -0.004591	    0.004554	    0.005666	    0.010221	   -0.003342	    0.001289	   -0.002053	   -0.001904	    0.003102	    0.001199	   -0.004760	   -0.005714	   -0.010474	    0.031453	    0.043941	    0.075394	   -0.051501	    0.010492	   -0.041009	    0.039995	    0.055858	    0.095854	   -0.006288	    0.010365	    0.004077	   -0.002304	    0.001212	   -0.001092	   -0.002975	    0.001139	   -0.001836	    0.003817	    0.010748	    0.014564	    0.059890	    0.110917	    0.170807	   -0.055217	    0.034210	   -0.021007
     3.450	0	0	    0	    0.022841	    0.004327	    0.027168	   -0.006247	    0.008429	    0.002182	   -0.010401	    0.010288	   -0.000113	   -0.000011	   -0.003921	   -0.003933	    0.003961	   -0.003235	    0.000726	   -0.052759	    0.052831	    0.000072	   -0.121188	    0.134038	    0.012850	    0.028407	    0.055665	    0.084072	   -0.009586	    0.002407	   -0.007179	   -0.021187	    0.031055	    0.009868	   -0.004220	    0.000716	   -0.003504	   -0.001194	    0.002104	    0.000909	   -0.007298	   -0.006161	   -0.013459	   -0.005256	    0.061028	    0.055771	   -0.083126	   -0.022526	   -0.105652	    0.022358	    0.059826	    0.082184	   -0.012110	    0.011862	   -0.000248	   -0.009849	    0.005341	   -0.004508	   -0.005199	    0.000862	   -0.004337	    0.000538	    0.012712	    0.013250	    0.027878	    0.112101	    0.139979	   -0.130154	   -0.014498	   -0.144652
     3.525	0	0	    0	    0.014690	    0.003926	    0.018616	   -0.007976	    0.002471	   -0.005505	   -0.015881	    0.010969	   -0.004912	   -0.004616	   -0.001802	   -0.006418	    0.005513	   -0.004075	    0.001438	   -0.043413	    0.053179	    0.009766	   -0.129036	    0.092907	   -0.036130	    0.001607	    0.060198	    0.061805	   -0.013429	   -0.000533	   -0.013961	   -0.028650	    0.036090	    0.007440	   -0.004572	   -0.000735	   -0.005307	   -0.002822	    0.001971	   -0.000851	   -0.002842	   -0.010013	   -0.012856	   -0.013133	    0.043107	    0.029974	   -0.062900	   -0.029998	   -0.092898	    0.000885	    0.030841	    0.031726	   -0.002738	   -0.004825	   -0.007563	   -0.004895	   -0.000399	   -0.005294	   -0.006216	   -0.001146	   -0.007362	   -0.003537	    0.008863	    0.005325	   -0.003433	    0.075702	    0.072269	   -0.115062	   -0.079480	   -0.194542
     3.600	0	0	    0	    0.007285	   -0.003242	    0.004043	   -0.013315	    0.005486	   -0.007829	   -0.018217	    0.012558	   -0.005659	   -0.007803	   -0.001857	   -0.009660	    0.009362	   -0.005960	    0.003402	   -0.027072	    0.034728	    0.007655	   -0.089603	    0.059597	   -0.030006	   -0.007535	    0.016194	    0.008659	   -0.015696	   -0.001157	   -0.016853	   -0.021534	    0.007960	   -0.013574	   -0.007331	    0.000197	   -0.007134	   -0.004083	    0.001961	   -0.002123	   -0.010343	   -0.000225	   -0.010568	   -0.012192	    0.021023	    0.008831	   -0.030621	   -0.026861	   -0.057482	   -0.012805	    0.011097	   -0.001707	   -0.011119	   -0.006561	   -0.017680	   -0.009597	   -0.003239	   -0.012836	   -0.007670	   -0.000843	   -0.008513	   -0.008861	    0.004721	   -0.004141	   -0.017374	    0.033029	    0.015656	   -0.063911	   -0.042852	   -0.106763
     3.675	0	0	    0	    0.008896	   -0.009550	   -0.000655	   -0.011408	    0.001444	   -0.009964	   -0.010103	    0.002466	   -0.007637	   -0.005142	   -0.005832	   -0.010975	    0.008853	   -0.003523	    0.005331	   -0.018192	    0.016153	   -0.002040	   -0.043494	    0.032763	   -0.010731	   -0.011086	    0.002077	   -0.009009	   -0.019319	    0.001189	   -0.018130	   -0.021893	    0.016681	   -0.005212	   -0.008061	   -0.001234	   -0.009295	   -0.005115	    0.002176	   -0.002939	   -0.015361	    0.005224	   -0.010137	   -0.017733	    0.003162	   -0.014571	   -0.028765	   -0.003270	   -0.032035	   -0.020743	    0.003565	   -0.017177	   -0.022920	    0.011229	   -0.011691	   -0.008137	    0.000112	   -0.008024	   -0.008493	   -0.000779	   -0.009272	   -0.013053	    0.003203	   -0.009850	   -0.025753	    0.015394	   -0.010359	   -0.062083	    0.026966	   -0.035117
     3.750	0	0	    0	    0.005641	   -0.013882	   -0.008240	   -0.011738	    0.000423	   -0.011315	   -0.011836	    0.001599	   -0.010237	   -0.009006	   -0.001554	   -0.010561	   -0.000244	    0.003821	    0.003578	   -0.024027	    0.015156	   -0.008872	   -0.047477	    0.033171	   -0.014305	   -0.015048	    0.003688	   -0.011361	   -0.016713	   -0.003885	   -0.020598	   -0.019057	    0.008559	   -0.010498	   -0.007308	   -0.001797	   -0.009105	   -0.007336	    0.002024	   -0.005312	   -0.014195	   -0.001594	   -0.015789	   -0.020109	    0.009331	   -0.010779	   -0.034095	    0.025426	   -0.008668	   -0.017021	   -0.007120	   -0.024141	   -0.012075	   -0.000158	   -0.012233	   -0.006444	    0.001556	   -0.004889	   -0.007327	   -0.000667	   -0.007995	   -0.012575	    0.000217	   -0.012357	   -0.021805	    0.004001	   -0.017804	   -0.042654	    0.034553	   -0.008101
     3.825	0	0	    0	    0.007113	   -0.008153	   -0.001040	   -0.009541	    0.005891	   -0.003650	   -0.007079	    0.003521	   -0.003558	   -0.004341	   -0.002759	   -0.007099	    0.001433	    0.001071	    0.002504	   -0.012884	    0.013247	    0.000363	   -0.023075	    0.024999	    0.001924	   -0.012297	    0.003890	   -0.008407	   -0.009858	   -0.001422	   -0.011280	   -0.024570	    0.025348	    0.000778	   -0.004176	   -0.000148	   -0.004324	   -0.006947	    0.001348	   -0.005599	   -0.007447	   -0.001817	   -0.009264	   -0.003681	   -0.012553	   -0.016233	   -0.005075	   -0.034808	   -0.039882	   -0.011198	   -0.005490	   -0.016688	   -0.007186	   -0.002063	   -0.009249	   -0.001452	   -0.002608	   -0.004060	   -0.003718	    0.000248	   -0.003470	   -0.008070	    0.000577	   -0.007492	   -0.000685	    0.000809	    0.000124	   -0.059969	    0.012025	   -0.047944
     3.900	0	0	    0	    0.002773	   -0.008577	   -0.005804	   -0.005397	    0.002859	   -0.002538	   -0.001993	    0.002474	    0.000481	   -0.003395	    0.000151	   -0.003244	   -0.000668	    0.003823	    0.003155	   -0.042058	    0.049675	    0.007617	   -0.034170	    0.063782	    0.029612	   -0.008012	    0.003946	   -0.004066	   -0.006887	   -0.001090	   -0.007977	   -0.022110	    0.021139	   -0.000971	   -0.000609	   -0.000824	   -0.001433	   -0.003467	    0.000096	   -0.003371	   -0.003396	   -0.002420	   -0.005816	    0.013362	    0.019601	    0.032963	   -0.036321	   -0.027549	   -0.063870	    0.012205	   -0.001197	    0.011008	   -0.002372	   -0.009490	   -0.011862	   -0.005740	    0.000730	   -0.005010	   -0.002402	    0.000717	   -0.001686	    0.002107	    0.003476	    0.005583	    0.044185	    0.027862	    0.072047	   -0.001098	   -0.036104	   -0.037201
     3.975	0	0	    0	    0.021512	   -0.008227	    0.013285	    0.002799	    0.003000	    0.005799	    0.000119	    0.005215	    0.005334	    0.003157	   -0.002950	    0.000207	    0.008159	   -0.009163	   -0.001004	   -0.042734	    0.044103	    0.001369	   -0.052885	    0.099806	    0.046921	    0.035016	    0.020540	    0.055556	   -0.001435	   -0.001090	   -0.002525	   -0.018772	    0.033259	    0.014487	    0.000860	    0.000551	    0.001410	   -0.000577	   -0.000868	   -0.001445	    0.001295	   -0.006381	   -0.005085	    0.022144	    0.049836	    0.071980	   -0.027423	   -0.011765	   -0.039188	    0.052227	    0.036388	    0.088615	    0.001020	    0.004109	    0.005129	    0.000498	   -0.001008	   -0.000510	   -0.000365	    0.000498	    0.000133	    0.008361	    0.009100	    0.017461	    0.075307	    0.100810	    0.176117	   -0.011644	    0.029650	    0.018006
     4.050	0	0	    0	    0.011323	    0.007313	    0.018636	    0.003879	    0.002943	    0.006822	    0.000699	    0.004481	    0.005180	   -0.001637	    0.002279	    0.000642	    0.004182	   -0.006462	   -0.002280	   -0.038618	    0.034347	   -0.004271	   -0.050996	    0.066190	    0.015193	    0.031664	    0.053592	    0.085256	   -0.003208	    0.002195	   -0.001012	   -0.002069	    0.005808	    0.003739	    0.000867	   -0.000120	    0.000746	   -0.000903	    0.001336	    0.000434	   -0.002202	   -0.007508	   -0.009710	    0.023232	    0.045930	    0.069162	   -0.063523	   -0.017214	   -0.080736	    0.038001	    0.059490	    0.097491	    0.005290	   -0.007158	   -0.001868	   -0.005219	    0.005622	    0.000403	   -0.001283	    0.000853	   -0.000430	    0.006199	    0.010276	    0.016475	    0.057457	    0.112980	    0.170437	   -0.106014	    0.033672	   -0.072342
     4.125	0	0	    0	    0.009957	    0.009025	    0.018982	    0.000562	    0.004480	    0.005042	    0.001468	    0.003077	    0.004545	    0.000386	    0.002642	    0.003028	    0.003052	   -0.009139	   -0.006087	   -0.026498	    0.021906	   -0.004592	   -0.083456	    0.060324	   -0.023132	    0.022776	    0.056275	    0.079052	   -0.005507	    0.002938	   -0.002569	   -0.011973	    0.035140	    0.023166	    0.000526	   -0.000057	    0.000470	   -0.001366	    0.001325	   -0.000040	   -0.003800	   -0.006059	   -0.009859	    0.015508	    0.032315	    0.047823	   -0.065574	   -0.055384	   -0.120958	    0.014780	    0.049110	    0.063890	    0.000688	    0.000184	    0.000872	   -0.002945	    0.002814	   -0.000132	   -0.000999	   -0.000696	   -0.001696	    0.005484	    0.009080	    0.014564	    0.025465	    0.093376	    0.118841	   -0.111140	   -0.065717	   -0.176858
     4.200	0	0	    0	    0.004998	   -0.002922	    0.002076	   -0.003674	    0.002852	   -0.000823	   -0.007221	    0.009436	    0.002216	    0.000472	    0.001070	    0.001543	    0.006503	   -0.009431	   -0.002928	   -0.018686	    0.021415	    0.002728	   -0.098537	    0.047332	   -0.051205	   -0.000988	    0.042538	    0.041550	   -0.005192	   -0.002542	   -0.007733	   -0.025462	    0.023158	   -0.002305	   -0.001104	    0.001016	   -0.000089	    0.000128	    0.000338	    0.000466	    0.001376	   -0.008999	   -0.007623	   -0.010032	    0.035313	    0.025282	   -0.037963	   -0.019891	   -0.057853	    0.005620	    0.016627	    0.022247	   -0.002891	   -0.002675	   -0.005565	   -0.000466	   -0.004606	   -0.005071	   -0.001358	   -0.001065	   -0.002423	   -0.002122	    0.007117	    0.004995	   -0.002219	    0.059947	    0.057727	   -0.080805	   -0.072230	   -0.153035
     4.275	0	0	    0	    0.005816	   -0.003958	    0.001859	   -0.006231	    0.004737	   -0.001494	   -0.005924	    0.007821	    0.001897	   -0.000284	   -0.000057	   -0.000341	    0.006975	    0.000004	    0.006979	   -0.017180	    0.027054	    0.009874	   -0.057161	    0.061747	    0.004587	   -0.005398	    0.014837	    0.009439	   -0.005847	   -0.002180	   -0.008027	   -0.011972	    0.015038	    0.003066	   -0.001164	   -0.000152	   -0.001316	   -0.000715	    0.002499	    0.001783	   -0.001747	   -0.000947	   -0.002693	   -0.013864	    0.018271	    0.004406	    0.003785	   -0.044497	   -0.040712	    0.002296	   -0.000219	    0.002077	   -0.008995	    0.006450	   -0.002545	   -0.001843	    0.001027	   -0.000816	   -0.002444	   -0.000962	   -0.003406	   -0.004809	    0.002842	   -0.001967	   -0.005037	    0.024781	    0.019743	   -0.023942	   -0.019089	   -0.043030
     4.350	0	0	    0	    0.000555	   -0.010786	   -0.010231	   -0.006841	   -0.001066	   -0.007907	   -0.005638	    0.002156	   -0.003482	   -0.005459	    0.002144	   -0.003316	    0.003799	    0.005235	    0.009034	   -0.011401	    0.013269	    0.001868	   -0.020578	    0.011251	   -0.009327	   -0.004434	    0.005268	    0.000834	   -0.007079	   -0.005327	   -0.012406	   -0.002991	    0.000771	   -0.002220	   -0.004512	    0.000547	   -0.003965	   -0.002481	    0.003332	    0.000852	   -0.004129	   -0.000772	   -0.004902	    0.000676	   -0.012780	   -0.012104	   -0.020800	   -0.003764	   -0.024564	   -0.007169	   -0.002782	   -0.009951	    0.000831	   -0.012175	   -0.011344	   -0.009303	    0.005117	   -0.004186	   -0.004121	   -0.000726	   -0.004848	   -0.007290	    0.001500	   -0.005789	   -0.012121	    0.009632	   -0.002490	   -0.041793	    0.023917	   -0.017876
     4.425	0	0	    0	    0.001138	   -0.002291	   -0.001153	   -0.012181	    0.003871	   -0.008310	   -0.016416	    0.009887	   -0.006529	   -0.003766	   -0.000617	   -0.004383	   -0.000794	    0.006302	    0.005508	   -0.023410	    0.021750	   -0.001660	   -0.058495	    0.057869	   -0.000625	   -0.012146	    0.007497	   -0.004649	   -0.011750	   -0.001889	   -0.013639	   -0.042774	    0.045115	    0.002341	   -0.004018	   -0.000354	   -0.004372	   -0.004427	    0.003394	   -0.001033	   -0.008156	    0.001204	   -0.006952	   -0.016797	    0.005082	   -0.011715	   -0.023205	    0.003201	   -0.020004	   -0.008788	   -0.005906	   -0.014695	   -0.003662	   -0.008371	   -0.012033	   -0.007325	    0.003789	   -0.003537	   -0.003608	   -0.000976	   -0.004583	   -0.009929	    0.001662	   -0.008267	   -0.012834	    0.004305	   -0.008530	   -0.052844	    0.027823	   -0.025021
     4.500	0	0	    0	    0.003223	   -0.002382	    0.000840	   -0.012404	    0.003506	   -0.008898	   -0.010886	    0.000815	   -0.010071	   -0.004917	   -0.000806	   -0.005723	   -0.005360	    0.011519	    0.006160	   -0.030705	    0.037406	    0.006701	   -0.056249	    0.051448	   -0.004801	   -0.012997	    0.009258	   -0.003739	   -0.015004	   -0.000340	   -0.015344	   -0.032064	    0.027924	   -0.004140	   -0.003707	   -0.000549	   -0.004256	   -0.005271	    0.001979	   -0.003292	   -0.009715	    0.001770	   -0.007945	   -0.001580	   -0.007922	   -0.009502	   -0.001419	   -0.038818	   -0.040237	   -0.009271	   -0.004189	   -0.013460	   -0.003958	   -0.008989	   -0.012947	   -0.000996	   -0.002791	   -0.003787	   -0.003466	   -0.000718	   -0.004184	   -0.010036	    0.001211	   -0.008825	   -0.001678	    0.005738	    0.004061	   -0.068368	   -0.037904	   -0.106271
     4.575	0	0	    0	    0.000000	    0.000000	    0.000000	   -0.013403	    0.004361	   -0.009042	   -0.015554	    0.009251	   -0.006303	   -0.002982	   -0.001197	   -0.004179	    0.000700	    0.000270	    0.000971	   -0.040554	    0.038560	   -0.001994	   -0.059006	    0.076449	    0.017444	   -0.007851	    0.004107	   -0.003743	   -0.013658	   -0.002819	   -0.016477	   -0.021197	    0.023319	    0.002121	   -0.004439	   -0.000064	   -0.004503	   -0.005025	    0.000976	   -0.004049	   -0.013781	    0.000163	   -0.013618	    0.008180	    0.025402	    0.033581	   -0.043170	   -0.036463	   -0.079633	    0.010979	   -0.002712	    0.008266	   -0.013753	    0.007719	   -0.006034	   -0.001561	   -0.002549	   -0.004110	   -0.004046	   -0.000198	   -0.004244	   -0.005995	    0.003082	   -0.002913	    0.039685	    0.026643	    0.066328	   -0.002080	   -0.048477	   -0.050557
     4.650	0	0	    0	    0.009872	    0.002996	    0.012868	   -0.004128	   -0.000010	   -0.004138	   -0.002461	   -0.002251	   -0.004712	   -0.004271	   -0.002238	   -0.006509	   -0.002665	   -0.005921	   -0.008585	   -0.039568	    0.031913	   -0.007655	   -0.043134	    0.082072	    0.038939	    0.021864	    0.034888	    0.056752	   -0.012233	   -0.003987	   -0.016219	   -0.010420	    0.022085	    0.011665	   -0.004065	   -0.000540	   -0.004605	   -0.005432	    0.000302	   -0.005130	   -0.009816	   -0.011830	   -0.021646	    0.019572	    0.042956	    0.062528	   -0.039129	   -0.027899	   -0.067028	    0.034717	    0.042963	    0.077680	   -0.001812	   -0.005506	   -0.007319	   -0.004471	    0.000233	   -0.004238	   -0.005347	   -0.000110	   -0.005457	   -0.005198	    0.007570	    0.002372	    0.055084	    0.096695	    0.151779	   -0.058376	    0.019493	   -0.038883
     4.725	0	0	    0	    0.004467	    0.011576	    0.016042	   -0.007079	    0.003648	   -0.003431	   -0.009487	    0.007823	   -0.001664	   -0.002681	   -0.001783	   -0.004464	   -0.006448	   -0.005132	   -0.011580	   -0.042923	    0.036137	   -0.006786	   -0.076067	    0.095373	    0.019306	    0.014533	    0.058750	    0.073283	   -0.013803	   -0.003313	   -0.017116	   -0.015991	    0.031587	    0.015596	   -0.004531	   -0.000100	   -0.004631	   -0.005956	    0.000768	   -0.005188	   -0.010697	   -0.014007	   -0.024703	    0.002019	    0.048904	    0.050923	   -0.077253	   -0.024840	   -0.102092	    0.019241	    0.050708	    0.069949	   -0.009291	    0.004946	   -0.004344	   -0.010997	    0.007953	   -0.003043	   -0.006156	    0.000205	   -0.005951	   -0.004550	    0.006531	    0.001982	    0.031903	    0.103956	    0.135859	   -0.142052	   -0.000454	   -0.142506
     4.800	0	0	    0	    0.004570	    0.016752	    0.021322	   -0.002508	    0.002696	    0.000188	    0.004569	   -0.003017	    0.001552	   -0.002622	   -0.001033	   -0.003655	   -0.004988	   -0.006979	   -0.011966	   -0.028265	    0.030625	    0.002360	   -0.084933	    0.065339	   -0.019594	    0.011120	    0.058694	    0.069814	   -0.010697	   -0.002180	   -0.012877	   -0.011173	    0.021697	    0.010524	   -0.001023	   -0.000566	   -0.001589	   -0.004845	    0.000258	   -0.004587	   -0.003316	   -0.016553	   -0.019869	    0.004660	    0.036241	    0.040901	   -0.052060	   -0.045564	   -0.097624	    0.010787	    0.034364	    0.045151	   -0.001353	   -0.001240	   -0.002593	   -0.005615	    0.002551	   -0.003064	   -0.002497	   -0.000635	   -0.003131	   -0.001688	    0.006422	    0.004734	    0.020905	    0.079480	    0.100385	   -0.108532	   -0.062423	   -0.170955
     4.875	0	0	    0	    0.020278	   -0.017964	    0.002314	   -0.004398	    0.004173	   -0.000224	   -0.003629	    0.010323	    0.006694	    0.003841	   -0.005480	   -0.001639	    0.019815	   -0.018616	    0.001199	   -0.022538	    0.032804	    0.010267	   -0.062577	    0.052822	   -0.009755	    0.008121	    0.017388	    0.025508	   -0.004793	   -0.005515	   -0.010308	   -0.017811	    0.021282	    0.003471	   -0.000594	    0.000494	   -0.000101	    0.000256	   -0.000425	   -0.000169	    0.005796	   -0.012518	   -0.006722	   -0.003894	    0.033420	    0.029526	   -0.007439	   -0.032797	   -0.040236	    0.014746	    0.000508	    0.015255	    0.016917	   -0.026675	   -0.009758	   -0.004060	    0.000589	   -0.003472	   -0.001183	   -0.000934	   -0.002117	   -0.002150	    0.002869	    0.000718	    0.003889	    0.037440	    0.041329	   -0.030622	   -0.009816	   -0.040438
     4.950	0	0	    0	    0.009209	   -0.010804	   -0.001595	   -0.002259	    0.002596	    0.000337	   -0.003117	    0.006104	    0.002987	   -0.001561	    0.000106	   -0.001455	    0.005886	    0.001364	    0.007251	   -0.012289	    0.015308	    0.003019	   -0.025026	    0.044909	    0.019884	    0.004917	    0.009905	    0.014822	   -0.006177	   -0.000347	   -0.006524	   -0.006805	    0.009763	    0.002958	    0.000522	   -0.000475	    0.000047	    0.000172	    0.001882	    0.002054	   -0.001319	   -0.000566	   -0.001885	    0.006672	    0.002109	    0.008780	    0.008397	   -0.002238	    0.006159	    0.002769	    0.005975	    0.008745	   -0.003008	   -0.003952	   -0.006959	   -0.002983	    0.003640	    0.000657	    0.000480	   -0.001825	   -0.001344	   -0.003456	    0.002774	   -0.000682	    0.000592	    0.015406	    0.015998	   -0.012863	    0.042626	    0.029764
     5.025	0	0	    0	    0.002723	   -0.000899	    0.001823	   -0.008750	    0.009168	    0.000418	   -0.004726	    0.009449	    0.004723	   -0.002518	    0.002146	   -0.000372	    0.006868	    0.001922	    0.008790	   -0.032531	    0.038662	    0.006131	   -0.068522	    0.093595	    0.025073	    0.007811	    0.007691	    0.015502	   -0.005500	   -0.000233	   -0.005732	   -0.035315	    0.042062	    0.006747	    0.000872	   -0.001128	   -0.000256	    0.000010	    0.001883	    0.001893	   -0.005145	    0.003293	   -0.001852	   -0.015333	    0.027144	    0.011812	    0.003125	    0.018464	    0.021589	   -0.000090	    0.003974	    0.003884	    0.000401	   -0.003903	   -0.003502	    0.000104	    0.000233	    0.000337	    0.000879	   -0.001928	   -0.001049	   -0.004167	    0.001932	   -0.002235	    0.000051	    0.010540	    0.010591	    0.019090	    0.018824	    0.037914
     5.100	0	0	    0	    0.019708	   -0.019792	   -0.000084	   -0.005451	    0.003994	   -0.001456	   -0.002306	    0.006874	    0.004568	    0.002678	   -0.002346	    0.000332	    0.008216	   -0.000244	    0.007971	   -0.017165	    0.024221	    0.007056	   -0.018645	    0.047975	    0.029329	    0.002904	    0.005072	    0.007976	   -0.005344	   -0.000059	   -0.005403	   -0.014411	    0.019238	    0.004827	    0.000688	    0.000413	    0.001101	   -0.001849	    0.001328	   -0.000521	   -0.004124	    0.002905	   -0.001219	    0.016387	   -0.013268	    0.003119	    0.020335	   -0.026480	   -0.006145	    0.003143	   -0.000978	    0.002165	   -0.000416	   -0.001929	   -0.002346	   -0.001458	    0.002205	    0.000747	    0.000912	   -0.001122	   -0.000209	   -0.003590	   -0.000059	   -0.003649	    0.013216	    0.008282	    0.021498	   -0.041743	    0.012502	   -0.029241
     5.175	0	0	    0	   -0.004059	    0.003433	   -0.000626	   -0.001169	   -0.000067	   -0.001235	   -0.001766	    0.005767	    0.004001	    0.001156	   -0.000421	    0.000735	   -0.006050	    0.011788	    0.005738	   -0.028571	    0.039444	    0.010873	   -0.008316	    0.050478	    0.042162	   -0.001028	    0.006831	    0.005803	   -0.002991	   -0.002119	   -0.005111	   -0.017235	    0.012796	   -0.004439	    0.000761	    0.000992	    0.001754	   -0.002326	    0.000935	   -0.001391	   -0.001787	   -0.001619	   -0.003406	    0.041385	    0.005621	    0.047006	   -0.020036	   -0.017351	   -0.037387	    0.025377	   -0.003990	    0.021387	    0.005777	   -0.009733	   -0.003956	   -0.004034	    0.002179	   -0.001855	    0.001380	   -0.001046	    0.000334	    0.000995	    0.002685	    0.003680	    0.053028	    0.027751	    0.080778	    0.026483	   -0.033429	   -0.006946
     5.250	0	0	    0	    0.006898	    0.008537	    0.015436	    0.002887	    0.001176	    0.004063	    0.011179	   -0.005398	    0.005781	    0.003825	   -0.001710	    0.002115	   -0.003442	   -0.000827	   -0.004268	   -0.014780	    0.011894	   -0.002886	   -0.005905	    0.057626	    0.051721	    0.034390	    0.035184	    0.069574	   -0.005646	    0.002833	   -0.002812	   -0.012326	    0.024054	    0.011728	    0.001461	    0.001074	    0.002535	   -0.000820	   -0.000767	   -0.001588	   -0.005969	   -0.000615	   -0.006585	    0.037370	    0.041257	    0.078628	   -0.021235	   -0.008426	   -0.029662	    0.040826	    0.058013	    0.098840	   -0.005919	    0.012376	    0.006458	   -0.002630	    0.003224	    0.000594	    0.001975	   -0.001377	    0.000598	    0.003357	    0.008871	    0.012228	    0.073946	    0.105808	    0.179755	   -0.018354	    0.028382	    0.010028
     5.325	0	0	    0	    0.022995	    0.002327	    0.025322	   -0.001161	    0.005521	    0.004361	   -0.002013	    0.006964	    0.004951	    0.005968	   -0.002324	    0.003644	    0.003862	   -0.007781	   -0.003918	   -0.038503	    0.040607	    0.002103	   -0.070051	    0.091774	    0.021724	    0.036969	    0.054299	    0.091268	   -0.005343	    0.003602	   -0.001742	   -0.021012	    0.032912	    0.011900	    0.000275	    0.000454	    0.000729	    0.000221	   -0.001185	   -0.000964	   -0.003023	   -0.006190	   -0.009213	    0.022081	    0.041107	    0.063187	   -0.038118	   -0.036583	   -0.074701	    0.036816	    0.061930	    0.098747	    0.000944	   -0.000695	    0.000249	    0.003109	   -0.003924	   -0.000816	    0.000699	   -0.001557	   -0.000859	    0.003957	    0.007401	    0.011357	    0.049653	    0.106936	    0.156590	   -0.092125	   -0.027636	   -0.119762
     5.400	0	0	    0	    0.013410	    0.014454	    0.027864	   -0.001310	    0.003334	    0.002024	   -0.004242	    0.007946	    0.003704	    0.001719	    0.003470	    0.005189	   -0.002233	   -0.002974	   -0.005206	   -0.027882	    0.038552	    0.010670	   -0.093349	    0.064353	   -0.028996	    0.023353	    0.061638	    0.084991	   -0.008393	    0.001979	   -0.006414	   -0.005480	    0.007863	    0.002383	   -0.000135	   -0.000593	   -0.000728	   -0.002500	    0.000358	   -0.002142	   -0.003744	   -0.008636	   -0.012380	    0.006637	    0.036136	    0.042773	   -0.048963	   -0.047257	   -0.096220	    0.015586	    0.045900	    0.061486	   -0.002596	   -0.002040	   -0.004635	   -0.006444	    0.001556	   -0.004889	   -0.002363	   -0.001658	   -0.004020	   -0.001194	    0.006594	    0.005399	    0.019391	    0.076572	    0.095963	   -0.104671	   -0.081847	   -0.186518
     5.475	0	0	    0	    0.004998	    0.010031	    0.015029	   -0.006335	    0.000198	   -0.006137	   -0.004071	   -0.001117	   -0.005188	    0.000067	   -0.002160	   -0.002093	    0.005279	   -0.007273	   -0.001994	   -0.012593	    0.016662	    0.004070	   -0.033745	    0.010042	   -0.023703	   -0.008202	    0.053239	    0.045036	   -0.010784	   -0.000944	   -0.011728	   -0.001915	   -0.001444	   -0.003359	   -0.001655	   -0.000631	   -0.002286	   -0.002077	   -0.001557	   -0.003634	   -0.002966	   -0.006541	   -0.009507	    0.007242	    0.010941	    0.018183	    0.009373	   -0.052807	   -0.043433	    0.001200	    0.019297	    0.020497	   -0.008882	   -0.003689	   -0.012571	   -0.007644	   -0.000883	   -0.008527	   -0.002795	   -0.003116	   -0.005911	   -0.006997	    0.001130	   -0.005867	   -0.010498	    0.032687	    0.022189	   -0.028864	   -0.052487	   -0.081351
     5.550	0	0	    0	    0.017212	   -0.020068	   -0.002857	   -0.012918	    0.005643	   -0.007276	   -0.016249	    0.010109	   -0.006140	   -0.002115	   -0.003323	   -0.005437	    0.006339	   -0.002696	    0.003643	   -0.029435	    0.026465	   -0.002970	   -0.080935	    0.087742	    0.006807	   -0.000433	    0.001597	    0.001164	   -0.011567	   -0.003955	   -0.015522	   -0.037269	    0.032457	   -0.004812	   -0.003188	   -0.001276	   -0.004464	   -0.001681	   -0.001069	   -0.002750	   -0.009386	    0.000281	   -0.009105	   -0.017117	    0.008744	   -0.008373	    0.008541	   -0.001145	    0.007395	   -0.007486	    0.002034	   -0.005452	   -0.004701	   -0.008949	   -0.013650	   -0.009620	    0.003108	   -0.006512	   -0.003789	   -0.003753	   -0.007542	   -0.010119	    0.000003	   -0.010116	   -0.016963	    0.011180	   -0.005783	   -0.015067	   -0.005602	   -0.020669
     5.625	0	0	    0	    0.004084	   -0.011047	   -0.006963	   -0.010454	    0.000049	   -0.010405	   -0.004883	   -0.000989	   -0.005872	   -0.003861	   -0.003167	   -0.007027	   -0.000259	    0.002181	    0.001922	   -0.023028	    0.009369	   -0.013660	   -0.019039	    0.007518	   -0.011521	   -0.009224	    0.002099	   -0.007125	   -0.012829	   -0.002062	   -0.014892	   -0.020698	   -0.002687	   -0.023385	   -0.004885	   -0.001586	   -0.006471	   -0.003787	    0.000098	   -0.003689	   -0.012363	    0.002394	   -0.009969	   -0.013314	    0.003928	   -0.009385	    0.013420	    0.016133	    0.029553	   -0.013810	   -0.002189	   -0.015999	   -0.008156	   -0.010241	   -0.018397	   -0.007662	   -0.004817	   -0.012479	   -0.004195	   -0.003793	   -0.007988	   -0.012287	   -0.000706	   -0.012993	   -0.019688	    0.001969	   -0.017720	   -0.019469	    0.015381	   -0.004088
     5.700	0	0	    0	   -0.006082	   -0.006539	   -0.012622	   -0.015710	    0.001368	   -0.014342	   -0.012726	    0.003111	   -0.009615	   -0.006653	   -0.001068	   -0.007721	   -0.009301	    0.010038	    0.000737	   -0.024704	    0.020584	   -0.004121	   -0.055737	    0.044452	   -0.011285	   -0.016609	    0.005330	   -0.011279	   -0.014320	   -0.002852	   -0.017172	   -0.020517	    0.004458	   -0.016059	   -0.005028	   -0.002553	   -0.007581	   -0.007789	    0.000337	   -0.007452	   -0.012029	    0.000906	   -0.011123	   -0.022952	   -0.011548	   -0.034500	    0.013413	   -0.074112	   -0.060699	   -0.014435	   -0.004718	   -0.019153	   -0.009099	   -0.006215	   -0.015314	   -0.005447	   -0.007549	   -0.012996	   -0.003528	   -0.003645	   -0.007173	   -0.013157	   -0.001951	   -0.015107	   -0.009682	   -0.002978	   -0.012660	   -0.072931	   -0.032045	   -0.104976
     5.775	0	0	    0	    0.005494	   -0.009493	   -0.004000	   -0.011320	    0.000115	   -0.011205	   -0.018877	    0.011666	   -0.007211	   -0.004361	   -0.002534	   -0.006895	   -0.004522	    0.000514	   -0.004007	   -0.046036	    0.040758	   -0.005278	   -0.061275	    0.069089	    0.007814	   -0.006364	   -0.007995	   -0.014359	   -0.019337	    0.000161	   -0.019176	   -0.027880	    0.019750	   -0.008130	   -0.004609	   -0.002213	   -0.006823	   -0.007010	   -0.001442	   -0.008452	   -0.018789	    0.001601	   -0.017188	    0.001861	    0.016171	    0.018032	   -0.036584	   -0.057809	   -0.094393	    0.005070	    0.004665	    0.009735	   -0.013997	    0.002272	   -0.011725	   -0.004994	   -0.005379	   -0.010373	   -0.004013	   -0.002753	   -0.006766	   -0.009661	    0.003300	   -0.006361	    0.044685	    0.024556	    0.069241	   -0.009295	   -0.041891	   -0.051186
     5.850	0	0	    0	    0.010824	    0.007935	    0.018760	    0.003941	   -0.002512	    0.001429	   -0.000122	    0.001925	    0.001803	   -0.002598	   -0.003738	   -0.006336	   -0.007767	   -0.000601	   -0.008368	   -0.041789	    0.037333	   -0.004456	   -0.030921	    0.050704	    0.019783	    0.017906	    0.044602	    0.062508	   -0.009119	   -0.002696	   -0.011815	    0.009556	   -0.006585	    0.002971	    0.000376	   -0.002453	   -0.002078	   -0.005655	   -0.001476	   -0.007130	   -0.009272	   -0.009829	   -0.019101	    0.017335	    0.024655	    0.041991	   -0.036465	   -0.020995	   -0.057460	    0.038374	    0.048082	    0.086456	   -0.006661	    0.005941	   -0.000720	   -0.001273	   -0.001620	   -0.002893	   -0.000166	   -0.002753	   -0.002919	   -0.001033	    0.006075	    0.005041	    0.060057	    0.099554	    0.159611	   -0.044347	    0.009917	   -0.034430
     5.925	0	0	    0	    0.018261	    0.006548	    0.024809	    0.001512	    0.005921	    0.007434	   -0.003901	    0.009327	    0.005427	    0.004672	   -0.004451	    0.000220	    0.005634	   -0.008852	   -0.003218	   -0.045407	    0.044576	   -0.000831	   -0.091701	    0.082707	   -0.008994	    0.033254	    0.050793	    0.084047	   -0.001038	   -0.001667	   -0.002704	   -0.019405	    0.024997	    0.005593	    0.000990	   -0.000170	    0.000820	   -0.000549	   -0.001907	   -0.002456	    0.002545	   -0.012506	   -0.009961	   -0.006305	    0.042754	    0.036449	   -0.090900	   -0.017116	   -0.108016	    0.034239	    0.055613	    0.089852	    0.006424	   -0.007646	   -0.001222	   -0.008965	    0.009029	    0.000064	    0.000439	   -0.001147	   -0.000707	    0.006844	    0.005611	    0.012454	    0.045902	    0.106442	    0.152344	   -0.144044	   -0.001538	   -0.145582
     6.000	0	0	    0	    0.008350	    0.021750	    0.030100	    0.002152	    0.006421	    0.008573	    0.000740	    0.008482	    0.009221	    0.001087	    0.001754	    0.002841	    0.000330	   -0.005645	   -0.005314	   -0.027342	    0.035966	    0.008625	   -0.095065	    0.055364	   -0.039700	    0.022878	    0.058222	    0.081100	   -0.001804	   -0.000445	   -0.002249	   -0.001795	    0.013290	    0.011495	    0.002538	   -0.001569	    0.000968	   -0.000852	   -0.000626	   -0.001478	    0.003785	   -0.013142	   -0.009357	   -0.006385	    0.041694	    0.035308	   -0.045006	   -0.057498	   -0.102504	    0.017964	    0.039476	    0.057439	    0.005752	   -0.004398	    0.001354	   -0.002369	   -0.001954	   -0.004322	    0.001223	   -0.002634	   -0.001411	    0.004543	    0.007419	    0.011962	    0.025447	    0.077572	    0.103019	   -0.107847	   -0.080888	   -0.188735
     6.075	0	0	    0	    0.010038	    0.001038	    0.011076	   -0.001268	    0.002655	    0.001387	   -0.000355	    0.004904	    0.004548	    0.003238	   -0.001176	    0.002062	    0.009061	   -0.006765	    0.002296	   -0.015463	    0.031597	    0.016134	   -0.062887	    0.043148	   -0.019739	   -0.000539	    0.036819	    0.036280	   -0.005844	    0.001374	   -0.004470	   -0.002069	    0.005808	    0.003739	    0.000464	   -0.000330	    0.000135	    0.001491	   -0.002085	   -0.000594	    0.003102	   -0.005498	   -0.002396	   -0.003136	    0.026093	    0.022957	   -0.007589	   -0.024496	   -0.032084	    0.002952	    0.012143	    0.015095	   -0.001080	   -0.006389	   -0.007468	   -0.007274	    0.004568	   -0.002706	    0.000986	   -0.003199	   -0.002213	   -0.002252	    0.003670	    0.001417	   -0.005903	    0.038577	    0.032674	   -0.048619	   -0.058725	   -0.107343
     6.150	0	0	    0	    0.004015	    0.001758	    0.005774	   -0.000292	    0.001004	    0.000711	    0.000301	    0.002749	    0.003050	   -0.001909	    0.000547	   -0.001363	    0.003535	    0.008578	    0.012113	   -0.011920	    0.024321	    0.012401	   -0.016457	    0.028895	    0.012438	   -0.006395	    0.015064	    0.008669	   -0.005793	   -0.000753	   -0.006546	   -0.002026	   -0.004102	   -0.006128	   -0.000687	   -0.001559	   -0.002246	    0.000816	    0.000261	    0.001077	   -0.001796	    0.000661	   -0.001135	    0.010586	   -0.006132	    0.004454	    0.002458	   -0.001521	    0.000938	   -0.001855	    0.002656	    0.000800	    0.005691	   -0.012045	   -0.006354	    0.002492	   -0.005537	   -0.003046	    0.000165	   -0.003034	   -0.002869	   -0.004065	    0.001137	   -0.002929	   -0.010699	    0.017419	    0.006719	   -0.027438	    0.016352	   -0.011086
     6.225	0	0	    0	   -0.000148	   -0.002355	   -0.002502	   -0.005526	    0.002170	   -0.003356	   -0.002760	    0.005664	    0.002904	   -0.003047	    0.001571	   -0.001476	    0.001723	    0.006042	    0.007765	   -0.015447	    0.015507	    0.000060	   -0.048529	    0.047898	   -0.000631	   -0.006168	    0.010203	    0.004036	   -0.006849	   -0.000301	   -0.007150	   -0.011766	    0.004964	   -0.006803	   -0.001981	   -0.000818	   -0.002799	   -0.000834	    0.000657	   -0.000177	   -0.004268	    0.001364	   -0.002903	   -0.005090	    0.007865	    0.002775	   -0.010325	    0.041933	    0.031607	   -0.001917	   -0.001954	   -0.003870	   -0.004820	   -0.001758	   -0.006578	    0.001543	   -0.004355	   -0.002813	    0.000085	   -0.002906	   -0.002821	   -0.004493	    0.001468	   -0.003025	   -0.012758	    0.010978	   -0.001781	   -0.017514	    0.030534	    0.013020
     6.300	0	0	    0	    0.011308	   -0.014274	   -0.002966	   -0.005893	    0.001125	   -0.004768	   -0.008612	    0.006303	   -0.002308	   -0.001383	   -0.000740	   -0.002123	    0.006117	    0.000572	    0.006689	   -0.017777	    0.019354	    0.001578	   -0.022799	    0.026117	    0.003318	   -0.005427	    0.005574	    0.000147	   -0.004938	   -0.003053	   -0.007991	   -0.026761	    0.017465	   -0.009295	   -0.001154	   -0.002494	   -0.003648	   -0.001218	   -0.001256	   -0.002473	   -0.003028	   -0.000127	   -0.003155	   -0.012606	    0.011751	   -0.000855	   -0.016931	    0.034196	    0.017264	   -0.004823	   -0.004726	   -0.009549	    0.006767	   -0.011479	   -0.004712	   -0.001946	   -0.001608	   -0.003554	    0.000931	   -0.003683	   -0.002752	   -0.005423	   -0.000038	   -0.005461	   -0.009662	    0.005865	   -0.003798	   -0.022026	    0.023497	    0.001471
     6.375	0	0	    0	    0.010044	   -0.006739	    0.003305	   -0.007297	    0.001603	   -0.005693	   -0.000653	    0.000358	   -0.000295	   -0.000429	    0.000750	    0.000321	    0.001832	    0.003564	    0.005396	   -0.028160	    0.039808	    0.011648	   -0.041939	    0.062358	    0.020419	   -0.008793	    0.005298	   -0.003494	   -0.007956	   -0.000711	   -0.008667	   -0.012621	    0.015979	    0.003358	   -0.001277	   -0.001028	   -0.002305	   -0.002664	   -0.001902	   -0.004565	   -0.006472	    0.002891	   -0.003581	    0.010632	   -0.009444	    0.001188	    0.004112	   -0.026695	   -0.022583	   -0.002467	   -0.003420	   -0.005887	    0.003344	   -0.004698	   -0.001354	   -0.003613	    0.002819	   -0.000794	    0.001096	   -0.002680	   -0.001584	   -0.003558	    0.000423	   -0.003135	    0.006560	    0.015527	    0.022087	   -0.070150	   -0.026846	   -0.096996
     6.450	0	0	    0	    0.022197	   -0.014336	    0.007861	   -0.004910	    0.000957	   -0.003953	   -0.008094	    0.006096	   -0.001998	    0.000903	   -0.000934	   -0.000031	    0.001495	   -0.001891	   -0.000396	   -0.041532	    0.040683	   -0.000849	   -0.054913	    0.081997	    0.027085	    0.003801	    0.000391	    0.004192	   -0.006652	   -0.001833	   -0.008486	   -0.013997	    0.016531	    0.002534	   -0.000626	   -0.001584	   -0.002210	   -0.002590	   -0.001412	   -0.004002	   -0.005398	   -0.004610	   -0.010008	    0.016918	    0.026981	    0.043898	   -0.011861	   -0.042499	   -0.054360	    0.030074	    0.002432	    0.032506	    0.003722	   -0.005149	   -0.001427	   -0.000994	   -0.000395	   -0.001388	    0.000019	   -0.002518	   -0.002499	    0.000196	    0.002443	    0.002639	    0.067123	    0.041736	    0.108859	   -0.009101	   -0.008221	   -0.017322
     6.525	0	0	    0	    0.019950	    0.007996	    0.027946	   -0.002112	    0.004777	    0.002666	   -0.005356	    0.008898	    0.003542	    0.002123	   -0.001853	    0.000270	    0.003536	   -0.003224	    0.000313	   -0.037960	    0.038050	    0.000090	   -0.047833	    0.097714	    0.049881	    0.026698	    0.044912	    0.071610	   -0.005273	   -0.001218	   -0.006491	   -0.020077	    0.027329	    0.007252	   -0.000938	   -0.001051	   -0.001989	   -0.002224	   -0.000980	   -0.003204	   -0.003705	   -0.007977	   -0.011682	    0.016136	    0.046188	    0.062324	   -0.036522	   -0.002349	   -0.038872	    0.041382	    0.050867	    0.092249	    0.002886	    0.000298	    0.003184	   -0.002620	    0.000804	   -0.001815	   -0.000844	   -0.002040	   -0.002884	    0.001236	    0.007618	    0.008854	    0.061197	    0.106767	    0.167964	   -0.057952	    0.022303	   -0.035649
     6.600	0	0	    0	    0.017719	    0.010818	    0.028536	   -0.002918	    0.004268	    0.001349	   -0.005139	    0.004618	   -0.000522	    0.000571	   -0.001138	   -0.000567	    0.002675	   -0.005110	   -0.002435	   -0.040422	    0.040238	   -0.000184	   -0.092812	    0.093653	    0.000840	    0.023541	    0.058162	    0.081703	   -0.008175	    0.000348	   -0.007827	   -0.015996	    0.024320	    0.008324	   -0.002601	   -0.001509	   -0.004110	   -0.002528	   -0.000599	   -0.003127	   -0.005782	   -0.008081	   -0.013863	   -0.002977	    0.047545	    0.044569	   -0.069044	   -0.034581	   -0.103626	    0.022402	    0.057498	    0.079901	   -0.000714	    0.003297	    0.002583	   -0.004194	   -0.001222	   -0.005416	   -0.002907	   -0.002210	   -0.005117	   -0.000061	    0.007415	    0.007354	    0.028447	    0.108488	    0.136935	   -0.135858	   -0.028319	   -0.164178
     6.675	0	0	    0	    0.036462	   -0.011096	    0.025366	   -0.006681	    0.002321	   -0.004359	   -0.002802	   -0.002697	   -0.005499	    0.000257	   -0.002814	   -0.002557	    0.007335	   -0.013378	   -0.006043	   -0.012115	    0.014171	    0.002056	   -0.098281	    0.057736	   -0.040545	    0.012432	    0.055063	    0.067495	   -0.010553	   -0.001842	   -0.012395	    0.003600	   -0.014286	   -0.010686	   -0.003784	   -0.001953	   -0.005736	   -0.002745	   -0.002892	   -0.005637	   -0.002594	   -0.014311	   -0.016904	   -0.011699	    0.036761	    0.025061	   -0.042709	   -0.028923	   -0.071633	    0.001245	    0.030603	    0.031848	   -0.002008	   -0.005705	   -0.007713	   -0.008261	   -0.001689	   -0.009950	   -0.004737	   -0.003333	   -0.008071	   -0.005635	    0.005273	   -0.000362	   -0.005020	    0.074667	    0.069647	   -0.133100	   -0.074530	   -0.207629
     6.750	0	0	    0	    0.002180	    0.003205	    0.005385	   -0.010495	    0.002405	   -0.008091	   -0.010012	    0.004084	   -0.005928	   -0.004973	    0.000293	   -0.004680	    0.001913	   -0.002439	   -0.000525	   -0.028942	    0.031400	    0.002459	   -0.080148	    0.051379	   -0.028769	   -0.022800	    0.026787	    0.003986	   -0.018249	    0.001445	   -0.016804	   -0.020756	    0.020596	   -0.000160	   -0.006153	   -0.001477	   -0.007630	   -0.005232	   -0.000428	   -0.005660	   -0.011262	   -0.000064	   -0.011326	   -0.026005	    0.020805	   -0.005200	   -0.010603	   -0.044441	   -0.055043	   -0.022821	    0.014366	   -0.008455	   -0.021385	    0.011631	   -0.009754	   -0.004716	   -0.004174	   -0.008891	   -0.005191	   -0.003817	   -0.009008	   -0.012946	    0.002975	   -0.009971	   -0.028127	    0.030245	    0.002118	   -0.049371	   -0.052907	   -0.102277
     6.825	0	0	    0	    0.002964	   -0.003721	   -0.000757	   -0.010020	    0.000972	   -0.009048	   -0.009285	   -0.001178	   -0.010463	   -0.009076	   -0.000654	   -0.009730	    0.001123	    0.002741	    0.003864	   -0.027074	    0.019856	   -0.007217	   -0.062774	    0.046339	   -0.016435	   -0.020979	    0.009602	   -0.011376	   -0.011778	   -0.005763	   -0.017540	   -0.023035	    0.012823	   -0.010211	   -0.004519	   -0.003473	   -0.007993	   -0.007039	    0.000363	   -0.006676	   -0.009507	   -0.005852	   -0.015360	   -0.018912	    0.003033	   -0.015879	   -0.008499	   -0.002685	   -0.011184	   -0.014149	   -0.006212	   -0.020361	   -0.001535	   -0.015774	   -0.017309	   -0.008611	   -0.001280	   -0.009891	   -0.003846	   -0.003825	   -0.007671	   -0.012208	   -0.000737	   -0.012944	   -0.019175	    0.008367	   -0.010807	   -0.021967	   -0.003457	   -0.025424
     6.900	0	0	    0	    0.012226	   -0.016317	   -0.004092	   -0.007413	    0.004096	   -0.003317	   -0.009898	    0.007906	   -0.001992	   -0.002147	   -0.002871	   -0.005018	   -0.000662	    0.004371	    0.003709	   -0.026359	    0.026326	   -0.000032	   -0.051705	    0.054951	    0.003246	   -0.007413	    0.004915	   -0.002498	   -0.007718	   -0.001537	   -0.009255	   -0.021670	    0.018434	   -0.003237	   -0.001513	   -0.002148	   -0.003661	   -0.003157	   -0.001576	   -0.004733	   -0.006763	   -0.001020	   -0.007783	   -0.010942	    0.008483	   -0.002459	   -0.011334	    0.027748	    0.016413	   -0.010388	    0.000089	   -0.010299	    0.000843	   -0.008818	   -0.007975	   -0.007598	    0.002560	   -0.005038	   -0.000557	   -0.003471	   -0.004029	   -0.008627	    0.001119	   -0.007509	   -0.013396	    0.009104	   -0.004293	   -0.027388	    0.034622	    0.007235
     6.975	0	0	    0	    0.007779	   -0.007280	    0.000499	   -0.004587	    0.002905	   -0.001682	   -0.012184	    0.015611	    0.003427	   -0.002889	    0.001786	   -0.001103	   -0.001487	    0.006018	    0.004530	   -0.024897	    0.029167	    0.004270	   -0.043397	    0.058454	    0.015058	   -0.007518	    0.006766	   -0.000752	   -0.003211	   -0.000974	   -0.004185	   -0.025589	    0.038755	    0.013166	    0.001478	   -0.001831	   -0.000353	   -0.003558	   -0.000578	   -0.004136	    0.000025	   -0.004012	   -0.003987	   -0.004104	   -0.003664	   -0.007769	    0.009632	   -0.017760	   -0.008128	   -0.000812	   -0.004354	   -0.005166	    0.012073	   -0.016227	   -0.004154	   -0.006451	    0.005577	   -0.000874	    0.002044	   -0.002838	   -0.000794	   -0.005589	   -0.000655	   -0.006244	    0.000991	    0.003273	    0.004264	   -0.050488	    0.020722	   -0.029766
     7.050	0	0	    0	    0.008577	   -0.004885	    0.003692	   -0.004777	    0.005531	    0.000754	    0.001284	    0.001065	    0.002349	    0.003490	   -0.002330	    0.001160	   -0.002319	    0.003531	    0.001212	   -0.031454	    0.033626	    0.002172	   -0.044382	    0.058608	    0.014226	   -0.002206	    0.002060	   -0.000146	   -0.001523	   -0.000240	   -0.001763	   -0.012264	    0.011951	   -0.000312	    0.002529	   -0.002068	    0.000462	   -0.002219	   -0.002465	   -0.004683	   -0.003301	    0.001021	   -0.002280	    0.021417	    0.010175	    0.031591	   -0.011586	   -0.031053	   -0.042639	    0.011902	    0.000820	    0.012722	    0.001088	   -0.002864	   -0.001776	    0.000730	   -0.003756	   -0.003026	    0.002104	   -0.002197	   -0.000093	    0.000956	    0.001746	    0.002701	    0.037925	    0.023387	    0.061312	    0.013360	   -0.058217	   -0.044858
     7.125	0	0	    0	    0.012858	    0.000090	    0.012948	   -0.003960	    0.008818	    0.004858	   -0.009866	    0.016746	    0.006881	    0.002346	    0.000370	    0.002716	   -0.002496	   -0.003252	   -0.005747	   -0.058001	    0.058494	    0.000493	   -0.082168	    0.136398	    0.054230	    0.028018	    0.027065	    0.055084	   -0.003456	    0.002710	   -0.000746	   -0.031478	    0.047131	    0.015653	    0.003175	   -0.001074	    0.002101	   -0.000609	   -0.001823	   -0.002432	   -0.003630	   -0.003717	   -0.007346	    0.019191	    0.049859	    0.069050	   -0.012920	   -0.018665	   -0.031585	    0.046918	    0.042833	    0.089751	    0.001905	    0.005385	    0.007290	    0.001695	   -0.002553	   -0.000858	    0.002308	   -0.001661	    0.000648	    0.004526	    0.008447	    0.012973	    0.075104	    0.095799	    0.170902	   -0.010947	    0.018891	    0.007944
     7.200	0	0	    0	    0.020594	    0.012600	    0.033194	    0.004520	    0.004590	    0.009110	    0.008766	   -0.005106	    0.003661	    0.004165	    0.001847	    0.006013	   -0.001789	    0.000537	   -0.001252	   -0.031611	    0.031966	    0.000356	   -0.053257	    0.083725	    0.030468	    0.029950	    0.055795	    0.085746	   -0.001218	    0.003470	    0.002252	   -0.001622	    0.019559	    0.017937	    0.001848	    0.000259	    0.002108	    0.000847	   -0.001178	   -0.000330	   -0.001125	   -0.006709	   -0.007833	    0.019718	    0.046617	    0.066334	   -0.055445	   -0.019920	   -0.075365	    0.039549	    0.055993	    0.095543	    0.008365	   -0.001290	    0.007075	   -0.000745	    0.001658	    0.000912	    0.001736	   -0.001079	    0.000657	    0.005672	    0.008227	    0.013898	    0.051596	    0.115282	    0.166878	   -0.098263	    0.007381	   -0.090882
     7.275	0	0	    0	    0.025270	    0.007593	    0.032863	    0.001795	    0.002944	    0.004739	   -0.002591	    0.005893	    0.003302	    0.001991	    0.002496	    0.004486	    0.005315	   -0.006757	   -0.001442	   -0.021223	    0.034026	    0.012803	   -0.088691	    0.066846	   -0.021845	    0.022020	    0.056834	    0.078854	   -0.006794	    0.004877	   -0.001917	   -0.017564	    0.030840	    0.013276	    0.001428	   -0.000674	    0.000754	    0.000643	   -0.000711	   -0.000069	    0.001247	   -0.008437	   -0.007190	    0.001017	    0.039604	    0.040621	   -0.032672	   -0.054817	   -0.087490	    0.013080	    0.041410	    0.054489	   -0.003722	    0.010053	    0.006331	    0.000318	   -0.001712	   -0.001394	    0.001134	   -0.002494	   -0.001360	    0.000612	    0.009508	    0.010120	    0.020009	    0.084122	    0.104131	   -0.099858	   -0.061008	   -0.160866
     7.350	0	0	    0	    0.010216	   -0.003516	    0.006700	   -0.005167	    0.001513	   -0.003654	   -0.003039	    0.002893	   -0.000145	   -0.000312	    0.002686	    0.002375	    0.005253	   -0.001345	    0.003907	   -0.018494	    0.025854	    0.007360	   -0.073405	    0.049648	   -0.023757	   -0.007631	    0.032284	    0.024653	   -0.004822	   -0.003423	   -0.008245	   -0.021005	    0.017492	   -0.003512	   -0.000596	   -0.000737	   -0.001333	    0.000114	   -0.000241	   -0.000127	    0.001061	   -0.006125	   -0.005064	   -0.001188	    0.015867	    0.014679	   -0.005341	   -0.035657	   -0.040998	   -0.002800	    0.010755	    0.007955	   -0.000832	   -0.008097	   -0.008928	   -0.000126	   -0.004724	   -0.004850	   -0.001128	   -0.002484	   -0.003613	   -0.004381	    0.002157	   -0.002224	   -0.006685	    0.037162	    0.030478	   -0.026056	   -0.042490	   -0.068546
     7.425	0	0	    0	    0.008076	   -0.000810	    0.007266	   -0.004132	    0.000217	   -0.003915	   -0.001978	   -0.002833	   -0.004812	    0.000416	   -0.003014	   -0.002598	    0.007990	    0.001092	    0.009083	   -0.006754	    0.011227	    0.004473	   -0.019848	    0.017274	   -0.002573	   -0.006949	    0.009129	    0.002180	   -0.008848	    0.000476	   -0.008372	   -0.003359	   -0.003567	   -0.006926	   -0.002177	   -0.002015	   -0.004192	    0.000673	    0.000446	    0.001119	   -0.003299	   -0.000545	   -0.003844	    0.003166	   -0.005165	   -0.002000	    0.002246	   -0.023798	   -0.021552	   -0.006347	   -0.002841	   -0.009188	    0.002466	   -0.008484	   -0.006019	    0.000975	   -0.004110	   -0.003135	   -0.001381	   -0.003258	   -0.004638	   -0.007419	    0.002492	   -0.004927	   -0.013963	    0.016190	    0.002228	   -0.009085	    0.007113	   -0.001972
     7.500	0	0	    0	    0.007292	   -0.007518	   -0.000226	   -0.007799	    0.000334	   -0.007465	   -0.007912	    0.001498	   -0.006415	   -0.006122	    0.000103	   -0.006019	    0.002796	    0.000541	    0.003337	   -0.015586	    0.008294	   -0.007292	   -0.048113	    0.052302	    0.004189	   -0.009463	    0.007143	   -0.002320	   -0.008836	   -0.002499	   -0.011335	   -0.016056	    0.016675	    0.000620	   -0.004960	   -0.002356	   -0.007317	   -0.001170	    0.000984	   -0.000185	   -0.006237	   -0.001032	   -0.007269	   -0.017813	    0.013331	   -0.004482	   -0.012682	    0.009639	   -0.003043	   -0.014022	   -0.002097	   -0.016119	    0.002087	   -0.008891	   -0.006804	   -0.001233	   -0.002440	   -0.003673	   -0.002839	   -0.003046	   -0.005885	   -0.008548	    0.001205	   -0.007342	   -0.015633	    0.007395	   -0.008238	   -0.015635	    0.019199	    0.003564
     7.575	0	0	    0	    0.003404	   -0.006851	   -0.003447	   -0.013463	    0.004017	   -0.009446	   -0.018480	    0.011581	   -0.006899	   -0.008113	    0.001393	   -0.006721	   -0.001077	    0.004918	    0.003842	   -0.030205	    0.030188	   -0.000017	   -0.077383	    0.085123	    0.007740	   -0.017654	    0.009389	   -0.008265	   -0.010371	   -0.003912	   -0.014283	   -0.029455	    0.026101	   -0.003354	   -0.004275	   -0.001981	   -0.006256	   -0.004486	    0.000890	   -0.003596	   -0.008708	    0.001085	   -0.007623	   -0.026363	    0.015357	   -0.011005	   -0.014671	   -0.007306	   -0.021977	   -0.014716	   -0.006007	   -0.020724	   -0.007829	   -0.000743	   -0.008572	   -0.006133	    0.001963	   -0.004170	   -0.002241	   -0.003025	   -0.005266	   -0.010410	    0.000488	   -0.009923	   -0.016310	    0.004949	   -0.011361	   -0.043959	    0.018695	   -0.025265
     7.650	0	0	    0	    0.003733	   -0.006416	   -0.002684	   -0.012701	    0.000585	   -0.012116	   -0.015717	    0.003818	   -0.011899	   -0.005409	    0.000433	   -0.004976	   -0.002045	    0.003808	    0.001763	   -0.019796	    0.024657	    0.004861	   -0.063017	    0.060688	   -0.002330	   -0.019531	    0.006376	   -0.013156	   -0.014002	   -0.001802	   -0.015804	   -0.032797	    0.036392	    0.003596	   -0.003357	   -0.001748	   -0.005105	   -0.006159	   -0.001529	   -0.007688	   -0.006077	   -0.000221	   -0.006298	   -0.004085	    0.001177	   -0.002907	   -0.014739	   -0.029267	   -0.044005	   -0.010085	   -0.004131	   -0.014216	   -0.003305	    0.001227	   -0.002078	   -0.002440	   -0.000606	   -0.003046	   -0.002234	   -0.002267	   -0.004501	   -0.008708	    0.001266	   -0.007442	   -0.003725	    0.019515	    0.015790	   -0.079488	   -0.035482	   -0.114970
     7.725	0	0	    0	    0.014175	   -0.005056	    0.009119	   -0.008197	    0.001653	   -0.006544	   -0.014915	    0.005843	   -0.009073	   -0.000279	   -0.003377	   -0.003656	   -0.001389	   -0.000543	   -0.001932	   -0.046304	    0.042057	   -0.004246	   -0.069216	    0.112761	    0.043546	    0.004381	    0.007021	    0.011402	   -0.011873	   -0.001597	   -0.013470	   -0.022210	    0.006250	   -0.015960	   -0.004897	   -0.000666	   -0.005563	   -0.005828	   -0.001852	   -0.007680	   -0.012436	   -0.002399	   -0.014834	    0.009757	    0.033386	    0.043144	   -0.032371	   -0.032120	   -0.064491	    0.032127	    0.009044	    0.041171	   -0.004914	    0.000865	   -0.004049	   -0.008261	   -0.001689	   -0.009950	   -0.004071	   -0.000847	   -0.004918	   -0.006663	    0.005807	   -0.000855	    0.057685	    0.056835	    0.114520	   -0.022053	    0.011981	   -0.010072
     7.800	0	0	    0	    0.014513	    0.008597	    0.023110	   -0.005078	    0.002874	   -0.002204	   -0.015560	    0.010122	   -0.005438	   -0.002178	    0.001509	   -0.000668	    0.000619	   -0.011187	   -0.010568	   -0.038915	    0.031061	   -0.007854	   -0.081921	    0.086954	    0.005033	    0.017147	    0.042811	    0.059958	   -0.011812	    0.000056	   -0.011756	   -0.024566	    0.017753	   -0.006813	   -0.003692	   -0.000719	   -0.004411	   -0.005747	    0.000106	   -0.005641	   -0.009041	   -0.010762	   -0.019803	    0.000719	    0.041630	    0.042349	   -0.081982	   -0.021589	   -0.103571	    0.023177	    0.047964	    0.071141	   -0.003417	   -0.000065	   -0.003482	   -0.003917	   -0.000000	   -0.003918	   -0.003492	   -0.000917	   -0.004409	   -0.005634	    0.007928	    0.002293	    0.038028	    0.106606	    0.144634	   -0.114235	    0.008444	   -0.105791
     7.875	0	0	    0	    0.013173	    0.013005	    0.026178	   -0.005068	    0.007812	    0.002744	   -0.005065	    0.003209	   -0.001855	   -0.002676	    0.002346	   -0.000330	   -0.005477	   -0.001115	   -0.006592	   -0.022020	    0.037869	    0.015850	   -0.111410	    0.066213	   -0.045197	    0.008624	    0.052863	    0.061487	   -0.007084	    0.000851	   -0.006232	   -0.013946	    0.022809	    0.008863	    0.000766	   -0.002293	   -0.001527	   -0.004398	   -0.001204	   -0.005601	   -0.000741	   -0.012300	   -0.013041	   -0.005456	    0.037667	    0.032211	   -0.027356	   -0.065330	   -0.092686	    0.012793	    0.033750	    0.046543	    0.003972	   -0.002577	    0.001395	    0.002594	   -0.002399	    0.000195	   -0.000358	   -0.001960	   -0.002319	   -0.003621	    0.009015	    0.005394	    0.018190	    0.080793	    0.098983	   -0.082025	   -0.052665	   -0.134689
     7.950	0	0	    0	    0.009038	    0.008460	    0.017498	    0.001593	    0.001447	    0.003040	    0.004431	   -0.002859	    0.001572	   -0.002112	    0.002880	    0.000767	    0.003206	    0.002480	    0.005686	   -0.012859	    0.029292	    0.016433	   -0.049461	    0.051877	    0.002416	   -0.006781	    0.035217	    0.028436	    0.000702	   -0.002659	   -0.001957	   -0.010626	    0.026673	    0.016047	   -0.000155	    0.000030	   -0.000125	   -0.002113	   -0.000124	   -0.002236	    0.005599	   -0.005207	    0.000391	    0.006612	    0.009932	    0.016544	    0.007421	   -0.030601	   -0.023180	    0.007454	    0.008370	    0.015824	    0.006188	   -0.005923	    0.000264	    0.003379	   -0.001888	    0.001490	    0.000376	   -0.001739	   -0.001363	   -0.005582	    0.004872	   -0.000711	   -0.001394	    0.035410	    0.034016	    0.004902	   -0.019860	   -0.014958
     8.025	0	0	    0	    0.019958	   -0.009749	    0.010209	   -0.000091	    0.002267	    0.002176	    0.003563	    0.001838	    0.005401	    0.001245	    0.001971	    0.003216	    0.008535	    0.001666	    0.010201	   -0.010305	    0.019441	    0.009136	   -0.017830	    0.038230	    0.020401	    0.005871	    0.008760	    0.014631	   -0.003047	    0.002781	   -0.000267	    0.002018	    0.007125	    0.009143	   -0.000182	   -0.000144	   -0.000325	    0.000268	    0.000351	    0.000619	    0.000579	    0.000661	    0.001240	   -0.001016	    0.011732	    0.010715	    0.004731	    0.015443	    0.020175	    0.006976	    0.001520	    0.008496	    0.004608	   -0.003905	    0.000703	    0.001278	   -0.000787	    0.000491	    0.001095	   -0.002474	   -0.001379	   -0.002042	    0.002873	    0.000832	   -0.001541	    0.017776	    0.016235	    0.006846	    0.033449	    0.040295
     8.100	0	0	    0	    0.003699	   -0.001279	    0.002419	   -0.002166	    0.000786	   -0.001380	   -0.005471	    0.005954	    0.000483	   -0.000754	    0.002411	    0.001657	    0.002553	    0.008008	    0.010561	   -0.014245	    0.020565	    0.006319	   -0.027874	    0.038043	    0.010170	   -0.000188	    0.012509	    0.012321	   -0.001514	    0.000081	   -0.001432	   -0.013946	    0.022809	    0.008863	   -0.000667	   -0.000124	   -0.000792	    0.000667	    0.001949	    0.002616	    0.000069	    0.000498	    0.000567	   -0.005833	    0.008404	    0.002572	   -0.017936	    0.023265	    0.005329	    0.002574	    0.001430	    0.004004	   -0.003681	    0.013375	    0.009694	   -0.004907	    0.006037	    0.001130	    0.001007	   -0.002539	   -0.001532	   -0.002928	    0.004453	    0.001525	   -0.001854	    0.011441	    0.009587	   -0.021553	    0.039571	    0.018018
     8.175	0	0	    0	   -0.000616	    0.006744	    0.006128	    0.000180	   -0.000443	   -0.000262	    0.003645	   -0.001859	    0.001786	   -0.001930	    0.003485	    0.001554	   -0.002186	    0.011024	    0.008838	   -0.008468	    0.028653	    0.020185	   -0.003209	    0.019812	    0.016603	   -0.004311	    0.011710	    0.007399	   -0.003473	    0.002391	   -0.001082	   -0.007625	    0.013772	    0.006147	    0.001779	   -0.001286	    0.000493	   -0.001670	    0.001511	   -0.000159	   -0.000896	    0.004555	    0.003660	    0.023658	   -0.001357	    0.022301	    0.011721	   -0.040185	   -0.028464	    0.009204	   -0.000276	    0.008928	    0.011969	   -0.007767	    0.004202	    0.004923	   -0.000920	    0.004004	    0.002217	   -0.002089	    0.000128	    0.002150	    0.002502	    0.004652	    0.024676	    0.017638	    0.042314	    0.012341	   -0.062126	   -0.049785
     8.250	0	0	    0	    0.009557	   -0.005266	    0.004291	    0.002654	   -0.001109	    0.001544	   -0.002372	    0.002531	    0.000159	    0.003077	    0.002382	    0.005459	   -0.001634	    0.003264	    0.001630	   -0.036698	    0.039199	    0.002501	   -0.042351	    0.091536	    0.049185	    0.021200	    0.008843	    0.030044	   -0.001274	    0.002346	    0.001073	   -0.000599	    0.002447	    0.001848	    0.000467	    0.000306	    0.000773	   -0.001091	    0.000179	   -0.000912	   -0.000576	   -0.002932	   -0.003507	    0.036996	    0.033640	    0.070636	    0.005207	   -0.036486	   -0.031279	    0.043727	    0.023804	    0.067531	    0.005677	    0.000160	    0.005837	    0.004490	   -0.001558	    0.002932	    0.001028	   -0.000857	    0.000172	    0.005819	    0.006537	    0.012356	    0.078274	    0.081850	    0.160123	    0.012522	    0.021009	    0.033531
     8.325	0	0	    0	    0.022970	   -0.000330	    0.022640	    0.000993	    0.004391	    0.005385	   -0.005208	    0.006942	    0.001734	    0.005643	    0.000401	    0.006044	    0.005945	   -0.013356	   -0.007411	   -0.029645	    0.032293	    0.002647	   -0.040018	    0.067398	    0.027380	    0.029991	    0.051605	    0.081596	    0.000787	    0.001952	    0.002739	   -0.012830	    0.019100	    0.006271	    0.000885	    0.000386	    0.001271	    0.001495	   -0.000988	    0.000507	    0.000260	   -0.004971	   -0.004711	    0.027874	    0.051651	    0.079525	   -0.028820	   -0.013297	   -0.042117	    0.050312	    0.056143	    0.106455	    0.011623	   -0.003865	    0.007757	   -0.000215	   -0.000173	   -0.000388	    0.001311	   -0.001018	    0.000292	    0.006114	    0.010187	    0.016301	    0.074841	    0.113165	    0.188006	   -0.044398	    0.027431	   -0.016967
     8.400	0	0	    0	    0.023899	    0.004805	    0.028704	    0.002982	    0.002552	    0.005534	   -0.001111	   -0.000833	   -0.001944	    0.003772	    0.000037	    0.003809	    0.004153	   -0.003546	    0.000607	   -0.021768	    0.029023	    0.007255	   -0.069788	    0.063572	   -0.006216	    0.032657	    0.060971	    0.093628	   -0.002447	    0.003916	    0.001469	   -0.010343	    0.016239	    0.005896	    0.000467	   -0.000249	    0.000218	    0.000533	    0.000433	    0.000965	   -0.002728	   -0.001449	   -0.004177	    0.013564	    0.046206	    0.059770	   -0.060157	   -0.044575	   -0.104732	    0.032026	    0.063644	    0.095671	    0.004458	    0.001752	    0.006211	   -0.002447	    0.001804	   -0.000643	   -0.000032	   -0.001172	   -0.001204	    0.004543	    0.010445	    0.014988	    0.040872	    0.109538	    0.150410	   -0.111397	   -0.036604	   -0.148001
     8.475	0	0	    0	    0.026377	   -0.002848	    0.023529	   -0.003721	    0.003758	    0.000037	   -0.012507	    0.009829	   -0.002678	    0.002391	    0.002200	    0.004591	    0.006760	   -0.009146	   -0.002386	   -0.019812	    0.039914	    0.020102	   -0.079927	    0.042865	   -0.037062	    0.018444	    0.054943	    0.073387	   -0.004971	    0.002626	   -0.002345	   -0.013705	    0.007752	   -0.005953	    0.000326	   -0.000746	   -0.000420	   -0.000789	   -0.000908	   -0.001697	   -0.001217	   -0.004779	   -0.005996	    0.000752	    0.043421	    0.044174	   -0.004702	   -0.029330	   -0.034032	    0.009608	    0.037283	    0.046890	   -0.005443	    0.005911	    0.000467	   -0.001210	   -0.002962	   -0.004172	   -0.001247	   -0.002337	   -0.003583	   -0.002474	    0.008602	    0.006128	    0.003597	    0.079964	    0.083561	   -0.052962	   -0.084872	   -0.137834
     8.550	0	0	    0	    0.001417	    0.009340	    0.010757	   -0.003353	   -0.000299	   -0.003651	   -0.008361	    0.005118	   -0.003243	    0.000801	    0.001696	    0.002498	    0.010635	   -0.005143	    0.005492	   -0.000813	    0.017168	    0.016355	   -0.043042	    0.046603	    0.003562	   -0.010177	    0.022686	    0.012509	   -0.006282	    0.000426	   -0.005856	   -0.007749	    0.002002	   -0.005747	   -0.000767	   -0.000617	   -0.001384	   -0.001616	   -0.001547	   -0.003163	   -0.001417	   -0.000884	   -0.002301	   -0.006224	    0.009936	    0.003711	    0.006918	   -0.013323	   -0.006405	   -0.000479	    0.006894	    0.006416	    0.009776	   -0.019592	   -0.009817	   -0.002756	   -0.003398	   -0.006154	   -0.002279	   -0.002197	   -0.004476	   -0.005605	    0.000667	   -0.004938	   -0.012937	    0.020370	    0.007433	   -0.021615	   -0.012818	   -0.034433
     8.625	0	0	    0	   -0.004948	    0.008818	    0.003870	   -0.001036	   -0.005544	   -0.006580	    0.003026	   -0.010839	   -0.007813	   -0.004298	    0.003361	   -0.000937	   -0.000255	    0.003277	    0.003022	   -0.006495	    0.003428	   -0.003067	    0.005915	   -0.002372	    0.003544	   -0.017675	    0.013790	   -0.003884	   -0.008423	    0.001101	   -0.007321	    0.000661	   -0.005179	   -0.004518	   -0.001120	   -0.001234	   -0.002354	   -0.001747	   -0.000591	   -0.002337	   -0.004846	   -0.000146	   -0.004992	   -0.006403	    0.005554	   -0.000849	    0.017093	    0.012864	    0.029957	   -0.003783	   -0.002299	   -0.006082	    0.005552	   -0.013297	   -0.007745	   -0.000963	   -0.003318	   -0.004281	   -0.002133	   -0.003073	   -0.005206	   -0.008067	    0.001374	   -0.006694	   -0.016952	    0.008681	   -0.008270	   -0.000125	    0.000923	    0.000798
     8.700	0	0	    0	    0.003104	   -0.005611	   -0.002507	   -0.006779	   -0.000500	   -0.007279	   -0.005994	   -0.002196	   -0.008190	   -0.003720	   -0.000469	   -0.004189	   -0.001757	    0.005736	    0.003978	   -0.016783	    0.009814	   -0.006969	   -0.027147	    0.024153	   -0.002994	   -0.014375	    0.005211	   -0.009164	   -0.009467	   -0.001427	   -0.010894	   -0.019472	    0.011201	   -0.008271	   -0.002747	   -0.001889	   -0.004636	   -0.002910	    0.000389	   -0.002522	   -0.004303	   -0.002428	   -0.006730	   -0.021126	    0.016387	   -0.004739	   -0.027279	    0.012033	   -0.015246	   -0.007134	   -0.010326	   -0.017461	   -0.000709	   -0.006832	   -0.007541	   -0.000582	   -0.004541	   -0.005123	   -0.002173	   -0.003053	   -0.005225	   -0.008876	   -0.000589	   -0.009465	   -0.019063	    0.003022	   -0.016041	   -0.053221	    0.029509	   -0.023712
     8.775	0	0	    0	    0.002612	   -0.005835	   -0.003224	   -0.011102	    0.001687	   -0.009414	   -0.017992	    0.007940	   -0.010053	   -0.003451	   -0.001014	   -0.004466	   -0.002698	    0.005714	    0.003016	   -0.024013	    0.029923	    0.005910	   -0.085786	    0.070093	   -0.015693	   -0.020635	    0.006430	   -0.014205	   -0.014066	    0.000623	   -0.013444	   -0.026330	    0.014807	   -0.011523	   -0.005390	   -0.000103	   -0.005493	   -0.005689	   -0.000440	   -0.006128	   -0.013151	    0.009155	   -0.003995	   -0.014663	    0.004710	   -0.009953	   -0.037486	   -0.031017	   -0.068503	   -0.008952	   -0.003319	   -0.012271	   -0.006429	   -0.000583	   -0.007012	   -0.002301	   -0.003580	   -0.005882	   -0.003873	   -0.001484	   -0.005357	   -0.007314	    0.002499	   -0.004815	    0.002473	    0.010313	    0.012786	   -0.071338	   -0.065978	   -0.137316
     8.850	0	0	    0	    0.013669	   -0.006151	    0.007518	   -0.008147	    0.002455	   -0.005692	   -0.013819	    0.010142	   -0.003676	   -0.007348	    0.003090	   -0.004257	   -0.003551	    0.005713	    0.002162	   -0.055050	    0.058499	    0.003449	   -0.101532	    0.134470	    0.032938	    0.002559	    0.003675	    0.006234	   -0.013866	   -0.001380	   -0.015246	   -0.040787	    0.043650	    0.002863	   -0.002610	   -0.001476	   -0.004086	   -0.004894	    0.000216	   -0.004679	   -0.012819	   -0.000879	   -0.013697	    0.005658	    0.033260	    0.038918	   -0.025357	   -0.045597	   -0.070953	    0.037849	    0.003153	    0.041003	   -0.002074	    0.001181	   -0.000892	    0.003085	   -0.006302	   -0.003217	   -0.002323	   -0.002127	   -0.004450	   -0.001941	    0.005485	    0.003544	    0.060931	    0.063531	    0.124462	   -0.025947	    0.001437	   -0.024510
     8.925	0	0	    0	    0.017362	   -0.002972	    0.014390	    0.001483	    0.002009	    0.003492	   -0.001903	    0.007722	    0.005819	    0.000242	   -0.001343	   -0.001102	    0.007026	   -0.008866	   -0.001839	   -0.044969	    0.044999	    0.000030	   -0.090997	    0.121258	    0.030261	    0.024672	    0.047902	    0.072574	   -0.002082	   -0.003156	   -0.005238	   -0.021832	    0.040492	    0.018660	    0.001204	   -0.000861	    0.000343	    0.000031	   -0.000141	   -0.000110	    0.003108	   -0.011012	   -0.007904	   -0.000562	    0.052198	    0.051635	   -0.059417	   -0.023245	   -0.082662	    0.041580	    0.051994	    0.093574	    0.003968	    0.007743	    0.011711	    0.005504	   -0.004098	    0.001406	    0.001026	   -0.001220	   -0.000194	    0.006537	    0.010270	    0.016807	    0.059315	    0.107593	    0.166908	   -0.087529	    0.002988	   -0.084540
     9.000	0	0	    0	    0.036686	   -0.008660	    0.028027	    0.002270	    0.005617	    0.007887	    0.001233	    0.001581	    0.002815	    0.004473	   -0.003157	    0.001316	    0.010473	   -0.006781	    0.003691	   -0.026958	    0.031719	    0.004761	   -0.099380	    0.072252	   -0.027128	    0.027262	    0.049410	    0.076672	   -0.000352	    0.001294	    0.000943	   -0.000378	    0.006952	    0.006574	    0.002819	   -0.001353	    0.001466	    0.002252	    0.000856	    0.003108	    0.004414	   -0.007200	   -0.002786	   -0.003007	    0.029477	    0.026469	   -0.058453	   -0.061768	   -0.120221	    0.030520	    0.039058	    0.069578	    0.014654	   -0.009216	    0.005438	    0.007632	   -0.006308	    0.001324	    0.001442	   -0.000816	    0.000626	    0.009774	    0.010752	    0.020526	    0.029873	    0.092678	    0.122550	   -0.106580	   -0.069219	   -0.175799
     9.075	0	0	    0	    0.018782	    0.005004	    0.023785	    0.001590	    0.005574	    0.007164	   -0.000469	    0.004151	    0.003682	    0.001119	    0.001712	    0.002831	    0.016966	   -0.011396	    0.005570	   -0.004231	    0.029208	    0.024977	   -0.069428	    0.061227	   -0.008201	    0.004783	    0.052361	    0.057144	   -0.000914	    0.001128	    0.000214	   -0.000746	    0.009628	    0.008882	    0.002528	   -0.000547	    0.001981	    0.002455	   -0.000716	    0.001739	    0.006995	   -0.003277	    0.003718	   -0.006077	    0.044157	    0.038080	   -0.000773	   -0.020476	   -0.021248	    0.011207	    0.023432	    0.034639	    0.003149	   -0.000586	    0.002562	    0.000140	    0.001827	    0.001966	    0.001419	   -0.001518	   -0.000100	    0.003246	    0.008866	    0.012112	   -0.003212	    0.066486	    0.063273	   -0.030470	   -0.047842	   -0.078312
     9.150	0	0	    0	    0.010038	    0.001038	    0.011076	   -0.002356	    0.006608	    0.004252	   -0.001344	    0.006602	    0.005258	    0.002935	   -0.000166	    0.002769	    0.013366	   -0.000301	    0.013065	   -0.007849	    0.020174	    0.012325	   -0.046066	    0.073406	    0.027340	    0.002340	    0.011374	    0.013714	   -0.000544	    0.000071	   -0.000473	   -0.009131	    0.018796	    0.009665	    0.000695	   -0.000000	    0.000695	    0.002366	    0.000614	    0.002980	    0.000497	    0.005643	    0.006140	    0.000752	    0.010640	    0.011392	    0.015331	    0.020810	    0.036141	    0.008637	    0.002154	    0.010792	    0.008670	   -0.004126	    0.004544	    0.003311	   -0.000533	    0.002778	    0.000831	   -0.002013	   -0.001183	    0.000259	    0.003183	    0.003442	   -0.006720	    0.020016	    0.013295	   -0.017278	    0.035323	    0.018044
     9.225	0	0	    0	    0.017341	   -0.007313	    0.010027	   -0.001560	    0.003434	    0.001874	   -0.002370	    0.007404	    0.005035	   -0.000583	    0.002822	    0.002238	    0.004840	    0.007446	    0.012287	   -0.006369	    0.011695	    0.005326	   -0.022960	    0.044081	    0.021121	   -0.003077	    0.013632	    0.010556	    0.000727	   -0.002103	   -0.001376	   -0.007518	    0.009365	    0.001848	   -0.000409	    0.000460	    0.000051	    0.000723	    0.001593	    0.002316	   -0.001085	    0.002323	    0.001238	    0.000766	    0.009382	    0.010148	    0.011400	    0.050201	    0.061601	    0.005364	   -0.003191	    0.002174	    0.008692	   -0.009489	   -0.000798	    0.003240	   -0.001591	    0.001648	    0.000924	   -0.001998	   -0.001074	   -0.000553	    0.001684	    0.001131	   -0.006714	    0.010301	    0.003587	   -0.028453	    0.056832	    0.028379
     9.300	0	0	    0	    0.007777	   -0.006429	    0.001348	   -0.008019	    0.006342	   -0.001677	   -0.009026	    0.007263	   -0.001763	   -0.002982	    0.005857	    0.002874	   -0.002724	    0.009891	    0.007168	   -0.021819	    0.024375	    0.002556	   -0.052072	    0.059482	    0.007410	   -0.007256	    0.009859	    0.002603	   -0.004924	    0.003831	   -0.001093	   -0.010086	    0.018000	    0.007914	    0.001049	   -0.000275	    0.000774	   -0.002993	    0.002099	   -0.000894	   -0.004010	    0.004632	    0.000623	   -0.007394	    0.003618	   -0.003777	   -0.005701	   -0.014197	   -0.019898	   -0.002920	   -0.000070	   -0.002990	    0.002820	    0.002263	    0.005084	    0.005210	   -0.002401	    0.002809	    0.001534	   -0.001047	    0.000487	   -0.002835	    0.002394	   -0.000440	    0.000675	    0.005213	    0.005888	   -0.048409	    0.025961	   -0.022448
     9.375	0	0	    0	    0.008413	   -0.008092	    0.000321	   -0.002792	   -0.000154	   -0.002947	   -0.006703	    0.005244	   -0.001458	   -0.001005	    0.004190	    0.003185	    0.001820	    0.003019	    0.004839	   -0.028068	    0.032164	    0.004096	   -0.040393	    0.057009	    0.016616	   -0.011081	    0.007842	   -0.003239	   -0.002243	   -0.000742	   -0.002985	   -0.023241	    0.023459	    0.000218	    0.000713	    0.001104	    0.001817	   -0.001919	   -0.001362	   -0.003281	   -0.002058	   -0.000473	   -0.002532	    0.022035	    0.001316	    0.023351	   -0.022722	   -0.015231	   -0.037953	    0.013968	   -0.006997	    0.006971	    0.008343	   -0.005621	    0.002721	    0.002271	   -0.002802	   -0.000530	   -0.000019	   -0.000094	   -0.000112	    0.001385	    0.003084	    0.004469	    0.035382	    0.023871	    0.059253	   -0.026431	   -0.039222	   -0.065653
     9.450	0	0	    0	    0.020208	   -0.003939	    0.016268	   -0.001932	    0.004561	    0.002629	   -0.003297	    0.006768	    0.003471	    0.003299	    0.002944	    0.006243	    0.000682	   -0.000265	    0.000417	   -0.034623	    0.032150	   -0.002473	   -0.072626	    0.107713	    0.035087	    0.023266	    0.008822	    0.032088	   -0.002214	   -0.000186	   -0.002401	   -0.016657	    0.025273	    0.008616	    0.001876	    0.000991	    0.002867	   -0.001965	   -0.000702	   -0.002667	    0.001785	   -0.008460	   -0.006675	    0.015067	    0.046742	    0.061809	   -0.020696	   -0.011837	   -0.032532	    0.051431	    0.019331	    0.070762	    0.012167	   -0.008437	    0.003730	   -0.005577	    0.005757	    0.000180	   -0.000213	    0.000134	   -0.000079	    0.005922	    0.005841	    0.011763	    0.072587	    0.091861	    0.164448	   -0.039148	    0.048490	    0.009342
     9.525	0	0	    0	    0.013495	    0.017947	    0.031442	    0.003304	    0.002798	    0.006101	    0.001639	   -0.002036	   -0.000396	   -0.000223	    0.005295	    0.005072	   -0.002733	    0.000521	   -0.002212	   -0.033965	    0.031289	   -0.002675	   -0.024526	    0.051605	    0.027078	    0.021073	    0.060853	    0.081926	   -0.001976	    0.002075	    0.000099	   -0.004411	    0.005618	    0.001207	    0.001217	    0.000954	    0.002171	   -0.002239	    0.000441	   -0.001798	   -0.001700	   -0.007352	   -0.009051	    0.016496	    0.054241	    0.070737	   -0.050618	   -0.005195	   -0.055813	    0.046724	    0.053283	    0.100007	    0.003006	    0.008451	    0.011458	    0.004033	   -0.004295	   -0.000262	   -0.001546	    0.000742	   -0.000803	    0.005109	    0.008003	    0.013112	    0.061551	    0.115842	    0.177393	   -0.073592	    0.022069	   -0.051523
     9.600	0	0	    0	    0.030747	   -0.001154	    0.029593	   -0.004438	    0.011341	    0.006903	   -0.008466	    0.008337	   -0.000130	    0.001885	    0.001164	    0.003049	    0.008382	   -0.014685	   -0.006303	   -0.042734	    0.044103	    0.001369	   -0.106933	    0.094568	   -0.012365	    0.026419	    0.060647	    0.087066	   -0.003912	    0.001599	   -0.002312	   -0.030539	    0.039469	    0.008930	   -0.000021	    0.000584	    0.000562	   -0.001088	   -0.001117	   -0.002204	   -0.001812	   -0.009879	   -0.011691	    0.007204	    0.034816	    0.042020	   -0.076222	   -0.035879	   -0.112101	    0.026276	    0.048366	    0.074642	   -0.001513	    0.010187	    0.008674	   -0.004178	    0.002772	   -0.001406	   -0.003184	    0.000091	   -0.003093	    0.003209	    0.007906	    0.011115	    0.025119	    0.102791	    0.127910	   -0.148501	   -0.043014	   -0.191515
     9.675	0	0	    0	    0.024873	   -0.010711	    0.014162	   -0.009978	    0.005181	   -0.004797	   -0.007489	    0.004475	   -0.003014	   -0.000232	    0.002377	    0.002145	    0.003517	   -0.012030	   -0.008514	   -0.024606	    0.030654	    0.006047	   -0.090387	    0.045021	   -0.045367	   -0.006598	    0.057179	    0.050581	   -0.010693	    0.001752	   -0.008942	   -0.026704	    0.033267	    0.006563	   -0.001833	    0.000197	   -0.001636	   -0.001634	   -0.000831	   -0.002464	   -0.000014	   -0.010020	   -0.010034	   -0.018313	    0.041647	    0.023334	   -0.026380	   -0.017901	   -0.044281	   -0.005206	    0.023082	    0.017876	   -0.004205	    0.006736	    0.002531	   -0.000924	   -0.001745	   -0.002669	   -0.004016	   -0.001379	   -0.005394	   -0.004737	    0.008524	    0.003787	   -0.017029	    0.069248	    0.052219	   -0.065314	   -0.085996	   -0.151310
     9.750	0	0	    0	    0.006796	   -0.004339	    0.002458	   -0.006582	   -0.001842	   -0.008424	   -0.007458	    0.000043	   -0.007415	   -0.003395	    0.000151	   -0.003244	    0.005192	    0.004693	    0.009885	   -0.016757	    0.014355	   -0.002402	   -0.084286	    0.054011	   -0.030275	   -0.013943	    0.010455	   -0.003488	   -0.013149	    0.000392	   -0.012757	   -0.014313	    0.003084	   -0.011229	   -0.005398	   -0.000406	   -0.005805	   -0.003251	    0.001110	   -0.002141	   -0.005189	   -0.000347	   -0.005536	   -0.019104	    0.006978	   -0.012126	   -0.024179	    0.000822	   -0.023357	   -0.008317	   -0.004394	   -0.012711	   -0.000577	   -0.006423	   -0.006999	   -0.001252	   -0.004528	   -0.005780	   -0.005414	   -0.001858	   -0.007272	   -0.007612	    0.001740	   -0.005872	   -0.021370	    0.015690	   -0.005680	   -0.056091	    0.012601	   -0.043490
     9.825	0	0	    0	    0.012598	   -0.013386	   -0.000787	   -0.007204	   -0.002322	   -0.009527	   -0.006780	    0.000062	   -0.006718	   -0.005773	    0.000074	   -0.005699	    0.001820	    0.003019	    0.004839	   -0.011468	    0.004999	   -0.006468	   -0.046872	    0.033257	   -0.013615	   -0.011849	    0.001038	   -0.010812	   -0.013464	   -0.001072	   -0.014536	   -0.004634	   -0.004555	   -0.009189	   -0.004468	   -0.001324	   -0.005792	   -0.004737	    0.002288	   -0.002450	   -0.010280	    0.000268	   -0.010012	   -0.022302	    0.008735	   -0.013567	   -0.030152	    0.032738	    0.002587	   -0.013364	   -0.005720	   -0.019084	   -0.005938	   -0.005518	   -0.011456	    0.003037	   -0.004974	   -0.001937	   -0.004075	   -0.002416	   -0.006491	   -0.009638	    0.002091	   -0.007547	   -0.021618	    0.005458	   -0.016160	   -0.047083	    0.018441	   -0.028641
     9.900	0	0	    0	    0.006809	   -0.008602	   -0.001794	   -0.002112	   -0.001247	   -0.003359	   -0.002743	    0.002076	   -0.000667	   -0.001999	   -0.000167	   -0.002166	   -0.001912	    0.012437	    0.010526	   -0.007799	    0.013508	    0.005709	   -0.028262	    0.025468	   -0.002794	   -0.011461	    0.005582	   -0.005879	   -0.007835	   -0.000923	   -0.008758	   -0.006676	    0.011071	    0.004395	    0.000519	   -0.001110	   -0.000591	   -0.005027	   -0.000190	   -0.005217	   -0.005381	    0.001431	   -0.003950	   -0.022259	    0.015587	   -0.006672	   -0.008412	    0.012522	    0.004110	   -0.005280	   -0.007343	   -0.012622	    0.001584	   -0.002026	   -0.000442	    0.005390	   -0.001107	    0.004283	   -0.000600	   -0.001819	   -0.002420	   -0.006459	    0.001583	   -0.004876	   -0.008455	    0.005086	   -0.003369	   -0.024344	    0.011225	   -0.013119
