 [File Information]      		 [Data Line]	36
Measured Date	2024/05/27 100900
ID		Version	11.0
Name	oceane_7	[HeaderType]	11.0/11.0
Comment	
[Measurement Info.]
Holder Location	       0
Block Design	Off     
Pre.Rest Time	       0
Task Time	       0
Pos.Rest Time	       0
Loop	       0
Averaging	       1
Total Points	     840
[.INF File]
Filename	Cognitive1.INF
[Condition-1]
HV Switching	OFF
 R1 ,R2 ,R3 ,R4 ,R5 ,R6 ,R7 ,R8 
 120.00, 70.00,120.00,100.00, 90.00, 70.00,120.00,120.00
 Gain(X1,X4,X16,X64)
 R1 ,R2 ,R3 ,R4 ,R5 ,R6 ,R7 ,R8 
 1,1,1,1,1,1,1,1
[Analysis Condition]
Smoothed Type	None            
Smoothed Points	       0
Smoothed Loop	       0
Baseline Method	None            
Baseline location	
[Text Info.]
Output Mode	Continious      	Task No.		Data Type	Hb      
Time Range	    0.00	   62.93	Averaing	1
(1,3)(5,3)(5,7)(2,7)(2,4)(6,4)(6,8)(1,1)(3,3)(5,5)(7,7)(2,2)(4,4)(6,6)(8,8)(3,1)(3,5)(7,5)(7,2)(4,2)(4,6)(8,6)
         	     	     	     	    ch- 1	    ch- 1	    ch- 1	    ch- 2	    ch- 2	    ch- 2	    ch- 3	    ch- 3	    ch- 3	    ch- 4	    ch- 4	    ch- 4	    ch- 5	    ch- 5	    ch- 5	    ch- 6	    ch- 6	    ch- 6	    ch- 7	    ch- 7	    ch- 7	    ch- 8	    ch- 8	    ch- 8	    ch- 9	    ch- 9	    ch- 9	    ch-10	    ch-10	    ch-10	    ch-11	    ch-11	    ch-11	    ch-12	    ch-12	    ch-12	    ch-13	    ch-13	    ch-13	    ch-14	    ch-14	    ch-14	    ch-15	    ch-15	    ch-15	    ch-16	    ch-16	    ch-16	    ch-17	    ch-17	    ch-17	    ch-18	    ch-18	    ch-18	    ch-19	    ch-19	    ch-19	    ch-20	    ch-20	    ch-20	    ch-21	    ch-21	    ch-21	    ch-22	    ch-22	    ch-22
Time(sec)	Task	Mark	Count	    oxyHb   	  deoxyHb	  totalHb	    oxyHb   	  deoxyHb	  totalHb	    oxyHb   	  deoxyHb	  totalHb	    oxyHb   	  deoxyHb	  totalHb	    oxyHb   	  deoxyHb	  totalHb	    oxyHb   	  deoxyHb	  totalHb	    oxyHb   	  deoxyHb	  totalHb	    oxyHb   	  deoxyHb	  totalHb	    oxyHb   	  deoxyHb	  totalHb	    oxyHb   	  deoxyHb	  totalHb	    oxyHb   	  deoxyHb	  totalHb	    oxyHb   	  deoxyHb	  totalHb	    oxyHb   	  deoxyHb	  totalHb	    oxyHb   	  deoxyHb	  totalHb	    oxyHb   	  deoxyHb	  totalHb	    oxyHb   	  deoxyHb	  totalHb	    oxyHb   	  deoxyHb	  totalHb	    oxyHb   	  deoxyHb	  totalHb	    oxyHb   	  deoxyHb	  totalHb	    oxyHb   	  deoxyHb	  totalHb	    oxyHb   	  deoxyHb	  totalHb	    oxyHb   	  deoxyHb	  totalHb
     0.000	0	0Z	    0	    0.000000	    0.000000	    0.000000	    0.000000	    0.000000	    0.000000	    0.000000	    0.000000	    0.000000	    0.000000	    0.000000	    0.000000	    0.000000	    0.000000	    0.000000	    0.000000	    0.000000	    0.000000	    0.000000	    0.000000	    0.000000	    0.000000	    0.000000	    0.000000	    0.000000	    0.000000	    0.000000	    0.000000	    0.000000	    0.000000	    0.000000	    0.000000	    0.000000	    0.000000	    0.000000	    0.000000	    0.000000	    0.000000	    0.000000	    0.000000	    0.000000	    0.000000	    0.000000	    0.000000	    0.000000	    0.000000	    0.000000	    0.000000	    0.000000	    0.000000	    0.000000	    0.000000	    0.000000	    0.000000	    0.000000	    0.000000	    0.000000	    0.000000	    0.000000	    0.000000	    0.000000	    0.000000	    0.000000	    0.000000	    0.000000	    0.000000
     0.075	0	0	    0	    0.008216	   -0.000276	    0.007940	    0.001423	   -0.001096	    0.000328	    0.003215	   -0.004307	   -0.001092	   -0.000714	   -0.001325	   -0.002038	   -0.000203	    0.000285	    0.000082	   -0.000007	    0.001891	    0.001884	    0.012092	   -0.011726	    0.000366	   -0.000172	   -0.001680	   -0.001851	   -0.005288	    0.003167	   -0.002121	   -0.001018	   -0.000939	   -0.001957	    0.001049	   -0.001862	   -0.000813	   -0.001654	   -0.000526	   -0.002180	   -0.006694	    0.004654	   -0.002040	   -0.001701	   -0.000931	   -0.002632	    0.007916	   -0.007985	   -0.000069	   -0.004874	    0.000881	   -0.003993	   -0.001757	   -0.000402	   -0.002159	   -0.001596	   -0.000275	   -0.001871	   -0.001121	   -0.000293	   -0.001414	   -0.002900	   -0.000758	   -0.003658	   -0.003089	   -0.000043	   -0.003132	    0.007645	   -0.010824	   -0.003179
     0.150	0	0	    0	    0.011534	   -0.006323	    0.005211	   -0.002163	    0.001510	   -0.000654	   -0.001218	    0.002147	    0.000929	   -0.003015	    0.000761	   -0.002254	   -0.001132	   -0.000842	   -0.001974	   -0.004855	    0.005471	    0.000617	    0.007019	   -0.004125	    0.002894	   -0.003936	   -0.000952	   -0.004887	   -0.006457	    0.002435	   -0.004022	   -0.002741	   -0.001256	   -0.003997	   -0.000918	   -0.000758	   -0.001676	   -0.003481	   -0.001581	   -0.005062	   -0.008874	    0.003341	   -0.005532	   -0.004547	    0.000727	   -0.003820	   -0.000927	    0.003565	    0.002638	   -0.007662	    0.000397	   -0.007265	   -0.003968	   -0.000691	   -0.004660	   -0.003025	    0.000170	   -0.002855	   -0.002665	   -0.000192	   -0.002857	   -0.006213	   -0.000669	   -0.006882	   -0.005418	   -0.001144	   -0.006563	   -0.006778	   -0.001509	   -0.008287
     0.225	0	0	    0	   -0.003923	    0.003173	   -0.000750	   -0.002892	   -0.001042	   -0.003934	   -0.003203	   -0.001196	   -0.004399	   -0.004051	   -0.000044	   -0.004094	   -0.003434	    0.000083	   -0.003351	   -0.003591	    0.001272	   -0.002319	    0.007721	   -0.008639	   -0.000918	   -0.012269	    0.005372	   -0.006897	   -0.008738	    0.001755	   -0.006983	   -0.004777	   -0.001699	   -0.006476	   -0.002034	   -0.001399	   -0.003433	   -0.006201	   -0.001956	   -0.008156	   -0.012753	    0.003589	   -0.009164	   -0.005447	   -0.004842	   -0.010289	   -0.000996	    0.002173	    0.001177	   -0.009612	   -0.000842	   -0.010454	   -0.006511	   -0.000950	   -0.007461	   -0.003788	    0.000064	   -0.003724	   -0.004101	   -0.000225	   -0.004326	   -0.009353	   -0.001194	   -0.010546	   -0.008934	   -0.002098	   -0.011032	   -0.004247	   -0.007228	   -0.011476
     0.300	0	0	    0	   -0.010832	    0.014640	    0.003808	   -0.002527	    0.002648	    0.000122	   -0.003282	    0.001032	   -0.002251	   -0.002734	   -0.001583	   -0.004317	   -0.002418	   -0.001823	   -0.004241	   -0.009049	    0.006801	   -0.002248	   -0.008507	    0.013935	    0.005428	   -0.006033	   -0.000873	   -0.006905	    0.001373	   -0.002553	   -0.001180	   -0.001674	   -0.003514	   -0.005188	    0.001411	   -0.001996	   -0.000585	   -0.006543	   -0.003798	   -0.010340	   -0.008354	   -0.001877	   -0.010231	   -0.004374	    0.000082	   -0.004292	    0.005291	    0.004454	    0.009745	    0.003888	   -0.003845	    0.000043	    0.002456	   -0.003689	   -0.001233	    0.002558	    0.000118	    0.002676	    0.002166	   -0.000858	    0.001308	   -0.002260	   -0.004666	   -0.006927	   -0.000528	   -0.001935	   -0.002463	   -0.000618	   -0.006172	   -0.006790
     0.375	0	0	    0	   -0.001366	    0.010921	    0.009555	    0.005843	    0.000217	    0.006060	   -0.000772	    0.004956	    0.004184	    0.007209	   -0.002951	    0.004258	    0.006562	   -0.001338	    0.005225	    0.001281	   -0.000944	    0.000336	   -0.000525	    0.012384	    0.011859	   -0.001622	    0.001102	   -0.000520	    0.017816	    0.004440	    0.022256	    0.003994	   -0.003440	    0.000554	    0.005567	   -0.002448	    0.003118	    0.000595	   -0.003550	   -0.002955	   -0.000921	    0.001182	    0.000261	   -0.000560	   -0.000295	   -0.000854	    0.017600	   -0.000037	    0.017563	    0.018116	    0.003618	    0.021734	    0.014967	    0.002353	    0.017320	    0.006207	    0.001310	    0.007516	    0.006921	    0.000454	    0.007375	    0.003703	    0.000133	    0.003836	    0.003005	    0.000217	    0.003223	   -0.000063	   -0.006752	   -0.006815
     0.450	0	0	    0	    0.011065	    0.009279	    0.020344	    0.010119	   -0.000336	    0.009782	    0.004228	    0.001851	    0.006079	    0.007488	    0.001226	    0.008713	    0.008957	    0.000963	    0.009920	    0.003034	    0.002044	    0.005077	    0.018214	   -0.002951	    0.015263	    0.001010	   -0.000326	    0.000684	    0.022559	    0.009261	    0.031820	    0.006976	   -0.003878	    0.003098	    0.007988	   -0.002350	    0.005638	    0.003109	   -0.002662	    0.000447	    0.000695	    0.004515	    0.005210	    0.005893	   -0.004216	    0.001676	    0.015689	    0.007120	    0.022809	    0.022801	    0.005541	    0.028343	    0.019297	    0.004534	    0.023831	    0.008392	    0.001234	    0.009627	    0.009294	    0.001178	    0.010472	    0.006093	    0.001667	    0.007760	    0.005946	    0.000143	    0.006088	    0.000600	   -0.006607	   -0.006007
     0.525	0	0	    0	    0.027995	   -0.014977	    0.013018	    0.008623	    0.001334	    0.009957	    0.006866	   -0.002054	    0.004812	    0.008087	    0.003362	    0.011448	    0.010362	   -0.000473	    0.009889	    0.000675	   -0.002746	   -0.002071	    0.014700	   -0.000360	    0.014340	    0.000948	    0.000238	    0.001186	    0.026298	    0.009703	    0.036001	    0.006316	   -0.002857	    0.003459	    0.008906	   -0.001493	    0.007413	    0.004911	   -0.003002	    0.001909	    0.002670	    0.003678	    0.006347	    0.002550	   -0.001428	    0.001122	    0.022606	    0.004307	    0.026913	    0.023644	    0.006124	    0.029768	    0.021346	    0.005043	    0.026389	    0.008460	    0.001136	    0.009595	    0.010085	    0.001574	    0.011659	    0.007438	    0.001216	    0.008655	    0.005573	    0.001413	    0.006986	    0.005859	   -0.012503	   -0.006644
     0.600	0	0	    0	    0.018841	   -0.000550	    0.018290	    0.005522	    0.002351	    0.007873	    0.005659	   -0.001501	    0.004158	    0.009877	    0.002176	    0.012053	    0.009756	    0.001958	    0.011714	    0.003439	   -0.004284	   -0.000845	    0.014517	    0.005882	    0.020400	    0.000685	   -0.001120	   -0.000435	    0.024977	    0.009476	    0.034453	    0.005613	   -0.002744	    0.002870	    0.008277	   -0.000967	    0.007310	    0.004480	   -0.002971	    0.001509	    0.001370	    0.005948	    0.007318	    0.006647	   -0.003482	    0.003165	    0.018383	    0.013281	    0.031663	    0.021557	    0.004985	    0.026542	    0.022684	    0.004340	    0.027024	    0.010244	    0.000850	    0.011094	    0.011664	    0.001330	    0.012995	    0.007401	    0.000779	    0.008180	    0.005485	    0.001828	    0.007314	    0.003636	   -0.005713	   -0.002077
     0.675	0	0	    0	    0.008552	    0.021088	    0.029640	    0.006474	   -0.005978	    0.000496	    0.011063	   -0.010396	    0.000668	    0.009151	    0.002622	    0.011773	    0.010904	    0.003240	    0.014144	    0.006325	   -0.012351	   -0.006026	    0.028020	   -0.010039	    0.017981	   -0.005610	   -0.003316	   -0.008926	    0.022745	    0.011076	    0.033821	    0.005727	   -0.006056	   -0.000330	    0.004929	   -0.003014	    0.001915	    0.003191	   -0.001851	    0.001340	    0.006140	    0.005781	    0.011921	    0.008673	   -0.011391	   -0.002718	    0.024332	    0.013290	    0.037622	    0.022262	    0.002458	    0.024719	    0.027244	    0.004913	    0.032158	    0.008555	    0.000207	    0.008763	    0.010324	    0.001190	    0.011514	    0.012434	   -0.000478	    0.011956	    0.003615	    0.002533	    0.006148	   -0.007425	    0.002738	   -0.004687
     0.750	0	0	    0	    0.019798	    0.003971	    0.023768	    0.002960	   -0.005713	   -0.002752	    0.006325	   -0.010590	   -0.004265	    0.009373	    0.002453	    0.011827	    0.016830	   -0.000217	    0.016613	    0.002462	   -0.018148	   -0.015686	    0.020958	   -0.004645	    0.016313	   -0.011706	   -0.010367	   -0.022073	    0.024576	    0.005946	    0.030522	    0.005838	   -0.006518	   -0.000680	    0.003161	   -0.002044	    0.001117	    0.003557	   -0.002962	    0.000595	    0.006542	    0.007742	    0.014284	    0.001771	   -0.011803	   -0.010033	    0.012238	    0.021434	    0.033672	    0.014880	   -0.005957	    0.008923	    0.027050	    0.005410	    0.032459	    0.005047	   -0.000111	    0.004936	    0.006620	    0.001505	    0.008125	    0.014587	    0.001444	    0.016031	    0.006929	   -0.001441	    0.005488	   -0.009889	   -0.006245	   -0.016134
     0.825	0	0	    0	    0.017440	    0.009844	    0.027284	    0.002669	   -0.003459	   -0.000790	    0.002029	   -0.006762	   -0.004732	    0.009632	    0.000557	    0.010189	    0.019227	    0.001900	    0.021128	    0.000043	   -0.013949	   -0.013906	    0.011592	    0.003450	    0.015042	   -0.016831	   -0.024236	   -0.041067	    0.024189	    0.003194	    0.027383	    0.008400	   -0.003312	    0.005088	    0.006757	   -0.003779	    0.002978	    0.002216	   -0.002676	   -0.000460	    0.016218	    0.003608	    0.019827	   -0.005248	   -0.002141	   -0.007389	    0.017497	    0.021216	    0.038713	    0.005505	   -0.021834	   -0.016329	    0.030952	    0.005281	    0.036233	    0.005160	   -0.002880	    0.002280	    0.004661	   -0.002020	    0.002641	    0.016132	    0.003295	    0.019427	    0.006750	    0.002601	    0.009351	   -0.010230	   -0.008023	   -0.018253
     0.900	0	0	    0	    0.025293	   -0.001011	    0.024282	    0.004022	   -0.004589	   -0.000566	    0.000089	   -0.005236	   -0.005147	    0.009692	   -0.001335	    0.008357	    0.023710	    0.001015	    0.024725	   -0.000739	   -0.020339	   -0.021078	    0.011788	    0.004385	    0.016172	   -0.024230	   -0.037858	   -0.062088	    0.019295	    0.003324	    0.022618	    0.011352	    0.001205	    0.012557	    0.007320	   -0.001051	    0.006269	    0.001214	   -0.004117	   -0.002903	    0.018736	    0.004878	    0.023614	   -0.009511	    0.000249	   -0.009262	    0.015159	    0.022542	    0.037701	   -0.007628	   -0.037019	   -0.044647	    0.032049	    0.008501	    0.040551	    0.004709	   -0.002385	    0.002324	    0.002950	   -0.004481	   -0.001531	    0.018719	   -0.001036	    0.017683	    0.010921	    0.000433	    0.011354	   -0.020020	   -0.006344	   -0.026363
     0.975	0	0	    0	    0.027404	   -0.008482	    0.018921	    0.003195	   -0.003959	   -0.000764	    0.000004	   -0.004249	   -0.004245	    0.007502	    0.000245	    0.007747	    0.025507	    0.001590	    0.027097	   -0.005698	   -0.019176	   -0.024874	    0.012922	    0.007931	    0.020854	   -0.025279	   -0.047801	   -0.073080	    0.016082	    0.002451	    0.018533	    0.010893	    0.005357	    0.016250	    0.007190	   -0.001137	    0.006052	   -0.001029	   -0.005594	   -0.006623	    0.017560	    0.010202	    0.027762	   -0.012366	    0.001784	   -0.010582	    0.021193	    0.023962	    0.045155	   -0.017765	   -0.046959	   -0.064724	    0.032963	    0.010639	    0.043602	    0.004110	   -0.002295	    0.001814	    0.001588	   -0.005571	   -0.003983	    0.013354	    0.002770	    0.016124	    0.007622	    0.005050	    0.012673	   -0.025170	   -0.008613	   -0.033783
     1.050	0	0	    0	    0.019262	    0.005610	    0.024872	    0.000634	   -0.000779	   -0.000145	    0.001146	   -0.007220	   -0.006073	    0.006375	    0.000114	    0.006489	    0.019684	    0.007535	    0.027219	   -0.011058	   -0.016761	   -0.027819	    0.014630	    0.013776	    0.028406	   -0.031157	   -0.049964	   -0.081120	    0.018577	   -0.002782	    0.015795	    0.010380	    0.005735	    0.016116	    0.006292	   -0.001101	    0.005192	   -0.003630	   -0.006600	   -0.010230	    0.014133	    0.016643	    0.030776	   -0.009020	   -0.004032	   -0.013051	    0.022472	    0.025596	    0.048068	   -0.021961	   -0.058219	   -0.080180	    0.033303	    0.009509	    0.042812	    0.003980	   -0.002134	    0.001846	    0.001124	   -0.006084	   -0.004959	    0.007833	    0.006502	    0.014336	    0.002617	    0.009426	    0.012043	   -0.020684	   -0.015916	   -0.036600
     1.125	0	0	    0	    0.024765	    0.000614	    0.025378	   -0.001093	   -0.000374	   -0.001467	   -0.007204	   -0.003138	   -0.010342	    0.005829	    0.000082	    0.005911	    0.023359	    0.007005	    0.030364	   -0.020748	   -0.011969	   -0.032717	   -0.000784	    0.027390	    0.026606	   -0.034570	   -0.052666	   -0.087236	    0.014478	   -0.000131	    0.014346	    0.008970	    0.005388	    0.014357	    0.004911	   -0.000701	    0.004210	   -0.005040	   -0.007432	   -0.012473	    0.012805	    0.018889	    0.031694	   -0.014180	   -0.001919	   -0.016098	    0.023796	    0.028404	    0.052200	   -0.027887	   -0.062800	   -0.090687	    0.030670	    0.011203	    0.041874	    0.003342	   -0.001685	    0.001657	    0.000833	   -0.005614	   -0.004781	    0.007429	    0.004574	    0.012003	    0.000454	    0.010321	    0.010775	   -0.015204	   -0.020625	   -0.035829
     1.200	0	0	    0	    0.015874	   -0.004357	    0.011517	    0.002077	   -0.005350	   -0.003273	   -0.003332	   -0.009194	   -0.012526	    0.004449	   -0.000191	    0.004258	    0.021125	    0.007424	    0.028549	   -0.008662	   -0.030032	   -0.038694	    0.018994	   -0.004050	    0.014944	   -0.037763	   -0.056401	   -0.094164	    0.012684	   -0.001306	    0.011378	    0.007323	    0.005051	    0.012374	    0.004512	   -0.001551	    0.002961	   -0.006535	   -0.008210	   -0.014745	    0.011626	    0.019424	    0.031050	   -0.011738	   -0.009807	   -0.021545	    0.033531	    0.013532	    0.047063	   -0.032116	   -0.066699	   -0.098815	    0.029545	    0.009770	    0.039315	    0.002247	   -0.001933	    0.000314	   -0.000200	   -0.005286	   -0.005487	    0.005774	    0.003129	    0.008903	    0.000000	    0.008082	    0.008083	   -0.018718	   -0.026991	   -0.045709
     1.275	0	0	    0	    0.000353	    0.012474	    0.012827	   -0.002140	   -0.001925	   -0.004065	   -0.007119	   -0.004114	   -0.011233	    0.002005	    0.001237	    0.003242	    0.014974	    0.013493	    0.028467	   -0.017362	   -0.026145	   -0.043507	    0.017283	    0.000987	    0.018269	   -0.039807	   -0.058727	   -0.098534	    0.007150	    0.001419	    0.008569	    0.006063	    0.005467	    0.011530	    0.003022	   -0.001494	    0.001528	   -0.008172	   -0.007921	   -0.016093	    0.007295	    0.022002	    0.029297	   -0.018528	   -0.004547	   -0.023075	    0.033127	    0.016966	    0.050093	   -0.038898	   -0.068521	   -0.107419	    0.026400	    0.010813	    0.037213	    0.000721	   -0.001361	   -0.000640	   -0.001271	   -0.005104	   -0.006375	    0.002624	    0.004799	    0.007424	   -0.004063	    0.009732	    0.005669	   -0.023398	   -0.024549	   -0.047947
     1.350	0	0	    0	    0.008220	    0.002512	    0.010732	   -0.003433	   -0.001346	   -0.004779	   -0.010229	   -0.002945	   -0.013174	    0.001023	    0.001048	    0.002071	    0.016099	    0.011008	    0.027107	   -0.019221	   -0.027391	   -0.046613	    0.006495	    0.008287	    0.014782	   -0.045394	   -0.055538	   -0.100932	    0.003993	    0.000269	    0.004261	    0.004113	    0.005339	    0.009452	    0.001772	   -0.001435	    0.000337	   -0.009444	   -0.008267	   -0.017711	    0.010903	    0.014764	    0.025667	   -0.020193	   -0.003441	   -0.023634	    0.026653	    0.023123	    0.049777	   -0.042498	   -0.071626	   -0.114125	    0.022438	    0.011624	    0.034062	   -0.001075	   -0.001311	   -0.002386	   -0.002992	   -0.004504	   -0.007496	    0.001273	    0.003328	    0.004601	   -0.004999	    0.008155	    0.003156	   -0.022656	   -0.026258	   -0.048914
     1.425	0	0	    0	   -0.003494	    0.023911	    0.020417	   -0.002804	   -0.001482	   -0.004286	   -0.007132	   -0.010666	   -0.017797	   -0.000046	   -0.000063	   -0.000110	    0.011898	    0.015632	    0.027529	   -0.018833	   -0.028471	   -0.047304	    0.007526	    0.015556	    0.023082	   -0.047628	   -0.056020	   -0.103649	    0.003212	   -0.001002	    0.002210	    0.005381	    0.004362	    0.009743	    0.002209	   -0.001604	    0.000605	   -0.012080	   -0.007829	   -0.019909	    0.009404	    0.013121	    0.022525	   -0.017322	   -0.007960	   -0.025281	    0.028838	    0.029755	    0.058593	   -0.044501	   -0.074232	   -0.118733	    0.021507	    0.010236	    0.031743	    0.001268	   -0.001962	   -0.000694	   -0.001551	   -0.005472	   -0.007023	    0.000361	    0.000013	    0.000374	   -0.002241	    0.005093	    0.002852	   -0.016456	   -0.027236	   -0.043692
     1.500	0	0	    0	    0.006431	    0.006645	    0.013076	    0.002420	    0.001482	    0.003901	    0.000649	   -0.006615	   -0.005966	    0.003669	    0.000675	    0.004344	    0.023052	    0.010962	    0.034014	   -0.013198	   -0.025548	   -0.038747	    0.010748	    0.014861	    0.025609	   -0.041000	   -0.058968	   -0.099968	    0.024978	   -0.001377	    0.023601	    0.014667	    0.004195	    0.018862	    0.007645	   -0.001593	    0.006052	   -0.006490	   -0.010044	   -0.016534	    0.020599	    0.013144	    0.033743	   -0.011687	   -0.008611	   -0.020298	    0.030480	    0.025887	    0.056367	   -0.025308	   -0.071499	   -0.096807	    0.038139	    0.014026	    0.052165	    0.008373	   -0.000060	    0.008313	    0.004326	   -0.003864	    0.000462	    0.010436	    0.001995	    0.012432	    0.007806	    0.006175	    0.013981	   -0.016402	   -0.026787	   -0.043190
     1.575	0	0	    0	    0.013610	    0.004168	    0.017778	    0.006964	    0.000587	    0.007551	    0.005525	   -0.007485	   -0.001960	    0.007846	    0.003042	    0.010888	    0.025662	    0.015458	    0.041120	   -0.002910	   -0.028736	   -0.031646	    0.026929	    0.006408	    0.033337	   -0.036377	   -0.060711	   -0.097088	    0.030936	    0.007948	    0.038885	    0.017337	    0.006490	    0.023827	    0.010231	   -0.000847	    0.009384	   -0.001561	   -0.008136	   -0.009698	    0.025568	    0.018319	    0.043887	   -0.010639	   -0.009196	   -0.019835	    0.038653	    0.025356	    0.064009	   -0.021033	   -0.065082	   -0.086115	    0.045019	    0.020440	    0.065459	    0.011971	    0.000915	    0.012886	    0.008023	   -0.003011	    0.005012	    0.013601	    0.005834	    0.019436	    0.008913	    0.008966	    0.017878	   -0.012901	   -0.028147	   -0.041048
     1.650	0	0	    0	    0.022258	    0.009579	    0.031837	    0.010226	    0.001154	    0.011380	    0.008210	   -0.007749	    0.000461	    0.011790	    0.002171	    0.013961	    0.029171	    0.020393	    0.049564	   -0.001310	   -0.022174	   -0.023484	    0.039123	    0.001475	    0.040599	   -0.035761	   -0.056954	   -0.092716	    0.033409	    0.010507	    0.043915	    0.018953	    0.008001	    0.026954	    0.011132	   -0.000184	    0.010948	    0.001107	   -0.007178	   -0.006071	    0.023463	    0.025573	    0.049037	   -0.002705	   -0.009882	   -0.012587	    0.045301	    0.018851	    0.064152	   -0.018849	   -0.063845	   -0.082694	    0.048210	    0.023038	    0.071248	    0.013709	    0.002229	    0.015938	    0.010014	   -0.002365	    0.007649	    0.015676	    0.007468	    0.023144	    0.008006	    0.012493	    0.020500	   -0.006328	   -0.030955	   -0.037283
     1.725	0	0	    0	    0.011731	    0.019019	    0.030751	    0.006261	    0.003712	    0.009973	   -0.000367	   -0.005326	   -0.005693	    0.010039	    0.003178	    0.013217	    0.030396	    0.019199	    0.049595	   -0.012971	   -0.015586	   -0.028557	    0.013124	    0.023490	    0.036614	   -0.038190	   -0.057823	   -0.096013	    0.031823	    0.010477	    0.042300	    0.017439	    0.007416	    0.024855	    0.011058	    0.000050	    0.011108	    0.001203	   -0.006672	   -0.005469	    0.022015	    0.027446	    0.049461	   -0.012501	   -0.003099	   -0.015599	    0.042334	    0.022642	    0.064976	   -0.022342	   -0.065396	   -0.087738	    0.047350	    0.022821	    0.070171	    0.013592	    0.003044	    0.016636	    0.010094	   -0.001824	    0.008270	    0.014913	    0.007188	    0.022101	    0.006841	    0.012464	    0.019305	   -0.005957	   -0.029291	   -0.035248
     1.800	0	0	    0	    0.007574	    0.015604	    0.023178	    0.007691	    0.001771	    0.009462	    0.004855	   -0.009387	   -0.004532	    0.008419	    0.004628	    0.013047	    0.027213	    0.019272	    0.046486	   -0.001384	   -0.028812	   -0.030197	    0.024300	    0.012405	    0.036705	   -0.039162	   -0.058366	   -0.097528	    0.034216	    0.007617	    0.041833	    0.018491	    0.006995	    0.025486	    0.011555	    0.000505	    0.012060	    0.001358	   -0.006559	   -0.005201	    0.025268	    0.022254	    0.047523	   -0.009264	   -0.005734	   -0.014998	    0.030249	    0.035825	    0.066074	   -0.022283	   -0.067919	   -0.090201	    0.048826	    0.021911	    0.070737	    0.014560	    0.003516	    0.018075	    0.010557	   -0.001188	    0.009369	    0.014943	    0.007252	    0.022195	    0.008280	    0.010643	    0.018923	   -0.014219	   -0.023569	   -0.037788
     1.875	0	0	    0	    0.017626	    0.007684	    0.025310	    0.005193	    0.003843	    0.009036	   -0.000859	   -0.001995	   -0.002854	    0.009686	    0.004712	    0.014398	    0.030703	    0.018116	    0.048819	   -0.016877	   -0.013766	   -0.030643	    0.012466	    0.025232	    0.037698	   -0.040079	   -0.057006	   -0.097085	    0.032856	    0.008747	    0.041603	    0.017168	    0.008186	    0.025354	    0.012103	    0.000525	    0.012628	    0.001863	   -0.006804	   -0.004942	    0.023701	    0.024999	    0.048700	   -0.017880	   -0.000561	   -0.018441	    0.045599	    0.023119	    0.068718	   -0.023365	   -0.068850	   -0.092215	    0.048743	    0.022103	    0.070846	    0.015095	    0.003567	    0.018662	    0.010613	   -0.001041	    0.009572	    0.014565	    0.006961	    0.021526	    0.005897	    0.012420	    0.018317	   -0.008861	   -0.032568	   -0.041429
     1.950	0	0	    0	    0.012869	    0.010818	    0.023687	    0.004466	    0.004196	    0.008662	   -0.001819	   -0.005625	   -0.007445	    0.012146	    0.001378	    0.013524	    0.031832	    0.015999	    0.047831	   -0.012946	   -0.018073	   -0.031019	    0.013627	    0.025638	    0.039265	   -0.037794	   -0.061859	   -0.099653	    0.029924	    0.009001	    0.038925	    0.016221	    0.007640	    0.023861	    0.011533	    0.000872	    0.012405	    0.001316	   -0.006543	   -0.005227	    0.020320	    0.028401	    0.048721	   -0.017727	    0.002140	   -0.015587	    0.046415	    0.025608	    0.072023	   -0.025583	   -0.071153	   -0.096736	    0.047643	    0.020861	    0.068504	    0.014485	    0.004236	    0.018720	    0.010299	   -0.000874	    0.009425	    0.012266	    0.007817	    0.020084	    0.007145	    0.010137	    0.017282	   -0.004959	   -0.033683	   -0.038642
     2.025	0	0	    0	    0.010615	    0.019453	    0.030068	    0.005393	    0.003763	    0.009156	   -0.002858	    0.001413	   -0.001446	    0.009629	    0.005146	    0.014775	    0.029824	    0.017766	    0.047590	   -0.007625	   -0.020467	   -0.028093	    0.018668	    0.027485	    0.046153	   -0.039710	   -0.061379	   -0.101089	    0.028516	    0.008511	    0.037027	    0.015552	    0.007556	    0.023107	    0.011831	    0.000769	    0.012600	    0.000227	   -0.006066	   -0.005838	    0.020355	    0.026761	    0.047116	   -0.012177	   -0.006635	   -0.018813	    0.051413	    0.021923	    0.073336	   -0.030516	   -0.070885	   -0.101401	    0.044449	    0.021298	    0.065747	    0.014614	    0.003899	    0.018513	    0.009713	   -0.000993	    0.008720	    0.011450	    0.006739	    0.018188	    0.003294	    0.011227	    0.014521	   -0.012011	   -0.029550	   -0.041561
     2.100	0	0	    0	    0.017988	    0.008186	    0.026174	    0.004757	    0.003664	    0.008421	   -0.001236	   -0.003002	   -0.004238	    0.009654	    0.003901	    0.013555	    0.030245	    0.016175	    0.046420	   -0.014340	   -0.017514	   -0.031854	    0.019088	    0.025195	    0.044283	   -0.041211	   -0.059672	   -0.100883	    0.024162	    0.008321	    0.032483	    0.014106	    0.007870	    0.021976	    0.011291	    0.000729	    0.012020	   -0.000795	   -0.006143	   -0.006938	    0.021362	    0.023449	    0.044811	   -0.013956	   -0.005759	   -0.019715	    0.051528	    0.023500	    0.075028	   -0.032439	   -0.073459	   -0.105898	    0.042081	    0.020468	    0.062550	    0.014207	    0.004131	    0.018338	    0.008624	   -0.000609	    0.008015	    0.008888	    0.006949	    0.015837	    0.003227	    0.008991	    0.012219	   -0.013477	   -0.028628	   -0.042104
     2.175	0	0	    0	    0.021097	    0.004254	    0.025351	    0.004487	    0.002414	    0.006900	    0.002397	   -0.010284	   -0.007887	    0.008636	    0.002411	    0.011046	    0.026450	    0.019121	    0.045571	   -0.014315	   -0.019983	   -0.034298	    0.024482	    0.020297	    0.044779	   -0.039410	   -0.065249	   -0.104659	    0.019258	    0.010184	    0.029443	    0.013336	    0.007126	    0.020462	    0.009605	    0.001349	    0.010954	   -0.002259	   -0.005994	   -0.008253	    0.015311	    0.026537	    0.041849	   -0.013467	   -0.006677	   -0.020144	    0.043538	    0.032274	    0.075812	   -0.038508	   -0.072803	   -0.111311	    0.038513	    0.021240	    0.059753	    0.012972	    0.004632	    0.017604	    0.007580	   -0.000700	    0.006880	    0.006847	    0.006963	    0.013810	    0.000367	    0.010471	    0.010837	   -0.013628	   -0.028944	   -0.042572
     2.250	0	0	    0	    0.028028	   -0.002578	    0.025449	   -0.000494	    0.005301	    0.004806	   -0.004643	   -0.004227	   -0.008870	    0.008452	    0.002154	    0.010606	    0.030726	    0.013686	    0.044412	   -0.018776	   -0.017393	   -0.036169	    0.011495	    0.030096	    0.041590	   -0.043848	   -0.061944	   -0.105793	    0.017981	    0.007464	    0.025445	    0.011116	    0.008274	    0.019390	    0.009155	    0.001104	    0.010258	   -0.003385	   -0.006428	   -0.009812	    0.015512	    0.024117	    0.039629	   -0.020202	   -0.001209	   -0.021411	    0.044791	    0.031160	    0.075951	   -0.041030	   -0.074220	   -0.115250	    0.036315	    0.020703	    0.057018	    0.011955	    0.004954	    0.016909	    0.006187	   -0.000278	    0.005910	    0.005578	    0.006010	    0.011587	   -0.002820	    0.011819	    0.008999	   -0.011907	   -0.028880	   -0.040787
     2.325	0	0	    0	    0.028103	    0.000237	    0.028340	   -0.002514	    0.007470	    0.004956	   -0.010665	    0.001772	   -0.008893	    0.006717	    0.002661	    0.009377	    0.028939	    0.013455	    0.042395	   -0.018927	   -0.020176	   -0.039103	    0.020666	    0.026940	    0.047607	   -0.045132	   -0.062822	   -0.107954	    0.013196	    0.008965	    0.022161	    0.009221	    0.009072	    0.018293	    0.008239	    0.001279	    0.009518	   -0.005146	   -0.006307	   -0.011453	    0.011889	    0.025062	    0.036950	   -0.020483	   -0.003106	   -0.023588	    0.041184	    0.037569	    0.078753	   -0.046144	   -0.074082	   -0.120226	    0.033469	    0.020753	    0.054223	    0.011731	    0.004366	    0.016097	    0.004817	   -0.000309	    0.004508	    0.003713	    0.005241	    0.008954	   -0.004335	    0.011163	    0.006828	   -0.016499	   -0.027460	   -0.043958
     2.400	0	0	    0	    0.014318	    0.013797	    0.028115	   -0.001041	    0.003928	    0.002887	   -0.008710	   -0.002474	   -0.011184	    0.003764	    0.004129	    0.007893	    0.019225	    0.021064	    0.040289	   -0.019651	   -0.024574	   -0.044225	    0.025930	    0.017612	    0.043542	   -0.049174	   -0.059809	   -0.108983	    0.009958	    0.007773	    0.017731	    0.008841	    0.007653	    0.016494	    0.007531	    0.000800	    0.008330	   -0.006924	   -0.006058	   -0.012982	    0.011807	    0.022854	    0.034661	   -0.024893	   -0.000530	   -0.025423	    0.042898	    0.032339	    0.075238	   -0.049758	   -0.074996	   -0.124754	    0.029531	    0.021137	    0.050669	    0.010086	    0.004497	    0.014583	    0.003396	   -0.000590	    0.002806	    0.001408	    0.004950	    0.006358	   -0.005562	    0.010584	    0.005022	   -0.013757	   -0.032883	   -0.046640
     2.475	0	0	    0	    0.007223	    0.023733	    0.030957	   -0.003803	    0.005917	    0.002113	   -0.005687	   -0.006506	   -0.012193	    0.001385	    0.005694	    0.007079	    0.021127	    0.018671	    0.039798	   -0.018575	   -0.025935	   -0.044511	    0.023856	    0.018443	    0.042299	   -0.048914	   -0.062610	   -0.111524	    0.003191	    0.011613	    0.014804	    0.006873	    0.007871	    0.014743	    0.005794	    0.001596	    0.007391	   -0.008880	   -0.005841	   -0.014721	    0.007542	    0.024726	    0.032268	   -0.025390	   -0.003045	   -0.028435	    0.037354	    0.037889	    0.075242	   -0.054148	   -0.075054	   -0.129202	    0.026174	    0.020831	    0.047005	    0.008013	    0.004639	    0.012652	    0.001385	   -0.000310	    0.001075	   -0.001883	    0.005208	    0.003325	   -0.005983	    0.007380	    0.001397	   -0.019938	   -0.030532	   -0.050470
     2.550	0	0	    0	   -0.008142	    0.028860	    0.020718	    0.000310	    0.001334	    0.001644	   -0.008079	   -0.003267	   -0.011346	    0.000267	    0.004249	    0.004516	    0.015918	    0.020277	    0.036195	   -0.013215	   -0.032038	   -0.045253	    0.027190	    0.014164	    0.041354	   -0.054647	   -0.058576	   -0.113224	    0.003185	    0.007466	    0.010651	    0.008720	    0.006007	    0.014727	    0.006814	    0.000430	    0.007244	   -0.010859	   -0.005701	   -0.016560	    0.006315	    0.021821	    0.028136	   -0.020206	   -0.005712	   -0.025917	    0.045561	    0.033114	    0.078674	   -0.053323	   -0.077853	   -0.131176	    0.025978	    0.019100	    0.045078	    0.010620	    0.003900	    0.014519	    0.003129	   -0.001491	    0.001638	   -0.002380	    0.003218	    0.000838	   -0.004943	    0.008036	    0.003093	   -0.012879	   -0.031785	   -0.044664
     2.625	0	0	    0	    0.009422	    0.016158	    0.025580	    0.006390	    0.002299	    0.008688	    0.004047	   -0.009329	   -0.005282	    0.003737	    0.004871	    0.008609	    0.024910	    0.017851	    0.042761	   -0.005096	   -0.032661	   -0.037757	    0.041388	    0.007439	    0.048828	   -0.046518	   -0.060873	   -0.107391	    0.026328	    0.004718	    0.031047	    0.016531	    0.006856	    0.023388	    0.011842	    0.000371	    0.012213	   -0.004816	   -0.007668	   -0.012485	    0.020898	    0.018141	    0.039039	   -0.009734	   -0.010113	   -0.019847	    0.050113	    0.032049	    0.082162	   -0.032247	   -0.075665	   -0.107912	    0.043031	    0.021722	    0.064753	    0.016178	    0.005454	    0.021632	    0.008365	   -0.000148	    0.008217	    0.008819	    0.004033	    0.012852	    0.004656	    0.009214	    0.013870	   -0.012524	   -0.030390	   -0.042914
     2.700	0	0	    0	    0.009132	    0.019387	    0.028519	    0.006834	    0.005503	    0.012337	    0.006745	   -0.008385	   -0.001640	    0.009830	    0.004162	    0.013992	    0.026682	    0.020664	    0.047347	   -0.008225	   -0.026330	   -0.034555	    0.022102	    0.027875	    0.049977	   -0.045052	   -0.058496	   -0.103549	    0.029640	    0.013923	    0.043563	    0.018429	    0.009097	    0.027525	    0.012820	    0.002021	    0.014842	   -0.001034	   -0.005614	   -0.006648	    0.020820	    0.024135	    0.044955	   -0.014520	   -0.005031	   -0.019551	    0.044969	    0.034584	    0.079554	   -0.030105	   -0.068411	   -0.098516	    0.047537	    0.027584	    0.075121	    0.018645	    0.006232	    0.024877	    0.010827	    0.000707	    0.011534	    0.012048	    0.007138	    0.019186	    0.004802	    0.012149	    0.016951	   -0.010119	   -0.031689	   -0.041809
     2.775	0	0	    0	    0.010631	    0.017513	    0.028144	    0.011748	    0.002746	    0.014494	    0.001923	   -0.003926	   -0.002004	    0.010974	    0.004544	    0.015518	    0.025627	    0.022737	    0.048364	   -0.004353	   -0.030566	   -0.034920	    0.034988	    0.016320	    0.051308	   -0.045165	   -0.057972	   -0.103137	    0.034130	    0.015334	    0.049464	    0.018483	    0.010985	    0.029468	    0.014303	    0.001482	    0.015785	    0.000616	   -0.004769	   -0.004152	    0.021080	    0.026836	    0.047916	   -0.011397	   -0.005721	   -0.017118	    0.047564	    0.033928	    0.081492	   -0.026895	   -0.068290	   -0.095186	    0.050289	    0.029612	    0.079901	    0.019459	    0.007119	    0.026578	    0.011629	    0.001490	    0.013119	    0.014325	    0.007560	    0.021885	    0.006788	    0.011846	    0.018634	   -0.013445	   -0.026458	   -0.039902
     2.850	0	0	    0	    0.015408	    0.017297	    0.032706	    0.009630	    0.004676	    0.014306	    0.003672	   -0.005788	   -0.002116	    0.011435	    0.004696	    0.016131	    0.030085	    0.018580	    0.048664	   -0.007031	   -0.025462	   -0.032493	    0.030517	    0.024753	    0.055270	   -0.046189	   -0.056097	   -0.102286	    0.031554	    0.016208	    0.047763	    0.018411	    0.008926	    0.027337	    0.014911	    0.001254	    0.016166	    0.000392	   -0.004232	   -0.003840	    0.022908	    0.024561	    0.047469	   -0.014844	    0.000762	   -0.014082	    0.055968	    0.029457	    0.085425	   -0.031674	   -0.066694	   -0.098368	    0.048232	    0.029082	    0.077314	    0.019502	    0.006708	    0.026210	    0.011510	    0.001614	    0.013124	    0.014092	    0.006229	    0.020321	    0.005604	    0.012892	    0.018497	   -0.007548	   -0.029032	   -0.036580
     2.925	0	0	    0	    0.017071	    0.015177	    0.032248	    0.008368	    0.005723	    0.014090	    0.005247	   -0.006829	   -0.001582	    0.011758	    0.004654	    0.016412	    0.028545	    0.020862	    0.049407	   -0.011124	   -0.021521	   -0.032645	    0.035092	    0.013536	    0.048628	   -0.042984	   -0.059766	   -0.102750	    0.033495	    0.013687	    0.047182	    0.018686	    0.009836	    0.028523	    0.014706	    0.002004	    0.016710	    0.000466	   -0.004472	   -0.004006	    0.021862	    0.025573	    0.047435	   -0.013328	   -0.005228	   -0.018556	    0.046489	    0.038759	    0.085248	   -0.029237	   -0.068633	   -0.097870	    0.048865	    0.029257	    0.078122	    0.019221	    0.007540	    0.026761	    0.011301	    0.002023	    0.013324	    0.013093	    0.007100	    0.020193	    0.004956	    0.013089	    0.018045	   -0.010448	   -0.028667	   -0.039115
     3.000	0	0	    0	   -0.005369	    0.034842	    0.029472	    0.008838	    0.005172	    0.014010	   -0.000885	   -0.000401	   -0.001286	    0.008793	    0.007786	    0.016579	    0.022823	    0.024810	    0.047632	   -0.015655	   -0.023625	   -0.039281	    0.017093	    0.030511	    0.047604	   -0.048018	   -0.054745	   -0.102763	    0.030716	    0.016046	    0.046762	    0.018603	    0.009071	    0.027674	    0.014649	    0.002051	    0.016700	    0.000389	   -0.004301	   -0.003912	    0.021192	    0.024691	    0.045884	   -0.014727	   -0.006672	   -0.021399	    0.045774	    0.036973	    0.082747	   -0.032014	   -0.067422	   -0.099436	    0.047095	    0.029833	    0.076928	    0.019059	    0.007275	    0.026334	    0.011035	    0.001951	    0.012986	    0.011618	    0.007807	    0.019425	    0.004532	    0.012270	    0.016802	   -0.018796	   -0.024119	   -0.042915
     3.075	0	0	    0	    0.023256	    0.000561	    0.023817	    0.003033	    0.008287	    0.011320	   -0.001703	   -0.001517	   -0.003219	    0.011176	    0.005621	    0.016798	    0.030045	    0.017457	    0.047502	   -0.014864	   -0.025816	   -0.040680	    0.023426	    0.024331	    0.047756	   -0.044066	   -0.060699	   -0.104765	    0.026566	    0.017121	    0.043687	    0.015725	    0.010000	    0.025725	    0.014044	    0.002560	    0.016604	   -0.000450	   -0.004263	   -0.004713	    0.020584	    0.024705	    0.045289	   -0.018530	   -0.002319	   -0.020850	    0.056634	    0.028939	    0.085573	   -0.033456	   -0.069301	   -0.102758	    0.044260	    0.029633	    0.073893	    0.018164	    0.006979	    0.025142	    0.009965	    0.002007	    0.011972	    0.010888	    0.006386	    0.017274	    0.003695	    0.012118	    0.015813	   -0.016871	   -0.026599	   -0.043471
     3.150	0	0	    0	    0.022771	    0.005038	    0.027809	    0.007421	    0.004431	    0.011852	   -0.002642	    0.001469	   -0.001173	    0.012258	    0.004376	    0.016634	    0.028668	    0.016346	    0.045014	   -0.012900	   -0.028864	   -0.041764	    0.016053	    0.030928	    0.046981	   -0.044464	   -0.060974	   -0.105438	    0.024097	    0.016951	    0.041049	    0.014601	    0.010007	    0.024607	    0.014248	    0.001960	    0.016207	   -0.001726	   -0.004201	   -0.005927	    0.015926	    0.027569	    0.043495	   -0.023850	    0.000123	   -0.023727	    0.048548	    0.039621	    0.088169	   -0.038053	   -0.067935	   -0.105988	    0.041732	    0.029187	    0.070919	    0.016930	    0.006906	    0.023837	    0.008420	    0.002157	    0.010577	    0.007379	    0.007502	    0.014881	    0.000483	    0.013799	    0.014282	   -0.014819	   -0.029552	   -0.044371
     3.225	0	0	    0	    0.016711	    0.010771	    0.027481	    0.004580	    0.005636	    0.010216	    0.007314	   -0.013345	   -0.006031	    0.009299	    0.005687	    0.014985	    0.026174	    0.018049	    0.044223	   -0.010949	   -0.031894	   -0.042844	    0.043825	    0.004568	    0.048393	   -0.046678	   -0.059906	   -0.106583	    0.020289	    0.017040	    0.037329	    0.014602	    0.008243	    0.022845	    0.012675	    0.002163	    0.014838	   -0.003178	   -0.004190	   -0.007368	    0.016641	    0.024164	    0.040805	   -0.013682	   -0.006149	   -0.019831	    0.055998	    0.029876	    0.085874	   -0.041392	   -0.068770	   -0.110162	    0.038778	    0.027972	    0.066750	    0.015179	    0.006791	    0.021970	    0.007163	    0.001684	    0.008847	    0.004236	    0.007368	    0.011604	   -0.000963	    0.014030	    0.013067	   -0.008072	   -0.032135	   -0.040208
     3.300	0	0	    0	    0.025022	    0.002217	    0.027239	    0.004671	    0.005182	    0.009853	   -0.001358	   -0.002888	   -0.004246	    0.008392	    0.005625	    0.014018	    0.026357	    0.018201	    0.044557	   -0.011434	   -0.033018	   -0.044451	    0.032591	    0.016651	    0.049242	   -0.046990	   -0.062192	   -0.109182	    0.018461	    0.016108	    0.034569	    0.012443	    0.009061	    0.021504	    0.011794	    0.002524	    0.014318	   -0.004205	   -0.004321	   -0.008525	    0.014195	    0.025310	    0.039505	   -0.021133	   -0.002626	   -0.023759	    0.053025	    0.036098	    0.089123	   -0.043120	   -0.071008	   -0.114128	    0.036543	    0.026974	    0.063517	    0.013862	    0.006680	    0.020542	    0.005476	    0.002100	    0.007576	    0.001670	    0.007962	    0.009632	   -0.001736	    0.011958	    0.010222	   -0.013729	   -0.029613	   -0.043342
     3.375	0	0	    0	    0.007155	    0.019967	    0.027122	    0.003218	    0.005232	    0.008450	   -0.006905	   -0.000197	   -0.007102	    0.007337	    0.005619	    0.012955	    0.021783	    0.021441	    0.043225	   -0.021714	   -0.022026	   -0.043740	    0.025427	    0.027427	    0.052854	   -0.051464	   -0.057859	   -0.109324	    0.015139	    0.015901	    0.031039	    0.011410	    0.008770	    0.020180	    0.010836	    0.002238	    0.013074	   -0.006070	   -0.004084	   -0.010154	    0.009973	    0.026692	    0.036665	   -0.018507	   -0.005615	   -0.024122	    0.049302	    0.042050	    0.091352	   -0.046469	   -0.070799	   -0.117268	    0.033158	    0.027262	    0.060420	    0.012337	    0.006621	    0.018958	    0.004195	    0.001692	    0.005887	   -0.000729	    0.007524	    0.006795	   -0.005811	    0.014643	    0.008833	   -0.018623	   -0.026320	   -0.044943
     3.450	0	0	    0	    0.030879	   -0.007150	    0.023729	   -0.001442	    0.008765	    0.007323	   -0.003373	   -0.004598	   -0.007971	    0.006188	    0.005977	    0.012165	    0.022376	    0.018874	    0.041251	   -0.024657	   -0.024176	   -0.048834	    0.018567	    0.036034	    0.054601	   -0.050729	   -0.060503	   -0.111232	    0.012140	    0.015513	    0.027653	    0.010007	    0.008584	    0.018591	    0.010396	    0.001934	    0.012329	   -0.007492	   -0.004325	   -0.011817	    0.007532	    0.027226	    0.034757	   -0.027472	    0.001372	   -0.026101	    0.048670	    0.042939	    0.091609	   -0.049282	   -0.071672	   -0.120954	    0.030345	    0.026688	    0.057034	    0.010943	    0.005986	    0.016929	    0.002461	    0.001718	    0.004179	   -0.003076	    0.007260	    0.004184	   -0.006536	    0.012980	    0.006445	   -0.013612	   -0.031451	   -0.045063
     3.525	0	0	    0	   -0.000979	    0.023565	    0.022586	   -0.001726	    0.008224	    0.006497	   -0.005242	   -0.003785	   -0.009027	    0.003316	    0.007083	    0.010399	    0.019288	    0.021025	    0.040312	   -0.022634	   -0.024988	   -0.047622	    0.016567	    0.036558	    0.053125	   -0.053393	   -0.057511	   -0.110904	    0.008821	    0.015343	    0.024164	    0.008283	    0.008267	    0.016550	    0.008752	    0.002285	    0.011036	   -0.009509	   -0.003761	   -0.013271	    0.005315	    0.027112	    0.032427	   -0.023795	   -0.003186	   -0.026982	    0.058850	    0.031833	    0.090683	   -0.052886	   -0.070790	   -0.123676	    0.027093	    0.026618	    0.053711	    0.008646	    0.006078	    0.014725	    0.000505	    0.001699	    0.002204	   -0.005448	    0.006337	    0.000889	   -0.008347	    0.012386	    0.004039	   -0.012197	   -0.033136	   -0.045333
     3.600	0	0	    0	   -0.001988	    0.017310	    0.015322	   -0.005129	    0.008633	    0.003504	   -0.011188	   -0.000881	   -0.012069	   -0.000322	    0.008805	    0.008483	    0.012202	    0.024298	    0.036500	   -0.031215	   -0.026964	   -0.058178	    0.014429	    0.024701	    0.039131	   -0.055174	   -0.059993	   -0.115166	    0.004482	    0.014297	    0.018779	    0.004884	    0.010008	    0.014892	    0.007291	    0.001987	    0.009279	   -0.011139	   -0.003660	   -0.014798	    0.003803	    0.025023	    0.028826	   -0.031608	   -0.000108	   -0.031716	    0.029991	    0.053243	    0.083235	   -0.056028	   -0.072373	   -0.128400	    0.023600	    0.026089	    0.049689	    0.006357	    0.005739	    0.012095	   -0.001945	    0.001917	   -0.000029	   -0.009189	    0.007324	   -0.001866	   -0.011221	    0.011555	    0.000334	   -0.025763	   -0.025436	   -0.051199
     3.675	0	0	    0	   -0.000665	    0.018437	    0.017772	    0.003660	    0.003455	    0.007114	    0.001118	   -0.009904	   -0.008787	    0.002301	    0.005017	    0.007318	    0.013950	    0.021042	    0.034992	   -0.018073	   -0.032968	   -0.051041	    0.032380	    0.019722	    0.052102	   -0.055083	   -0.057080	   -0.112163	    0.011332	    0.009293	    0.020625	    0.009623	    0.007167	    0.016791	    0.010611	    0.000909	    0.011520	   -0.012145	   -0.004450	   -0.016595	    0.004692	    0.022944	    0.027636	   -0.020478	   -0.005323	   -0.025801	    0.047534	    0.045566	    0.093100	   -0.048698	   -0.074449	   -0.123148	    0.028157	    0.023916	    0.052073	    0.011148	    0.004964	    0.016112	    0.002123	    0.000739	    0.002861	   -0.006907	    0.005739	   -0.001168	   -0.004579	    0.011805	    0.007226	   -0.016080	   -0.027294	   -0.043375
     3.750	0	0	    0	    0.003288	    0.016272	    0.019559	    0.005034	    0.008804	    0.013838	    0.002335	   -0.000448	    0.001886	    0.006173	    0.008294	    0.014467	    0.021077	    0.022671	    0.043748	   -0.017588	   -0.027120	   -0.044708	    0.023941	    0.030177	    0.054118	   -0.049804	   -0.055372	   -0.105177	    0.025696	    0.018225	    0.043921	    0.015919	    0.009127	    0.025046	    0.013641	    0.002357	    0.015998	   -0.005214	   -0.004743	   -0.009957	    0.012618	    0.027209	    0.039827	   -0.020006	   -0.001856	   -0.021862	    0.051235	    0.040006	    0.091241	   -0.033728	   -0.066201	   -0.099929	    0.042611	    0.029633	    0.072244	    0.015151	    0.006041	    0.021193	    0.005813	    0.002232	    0.008045	    0.001685	    0.008578	    0.010263	   -0.000099	    0.015084	    0.014985	   -0.015535	   -0.025664	   -0.041200
     3.825	0	0	    0	    0.013056	    0.013472	    0.026528	    0.006736	    0.010777	    0.017513	    0.000028	    0.003664	    0.003692	    0.011111	    0.006558	    0.017669	    0.024985	    0.022060	    0.047045	   -0.017016	   -0.025489	   -0.042506	    0.020192	    0.032941	    0.053134	   -0.044909	   -0.058680	   -0.103589	    0.031996	    0.019560	    0.051556	    0.018477	    0.009520	    0.027997	    0.014887	    0.002676	    0.017564	   -0.002835	   -0.002847	   -0.005681	    0.015172	    0.027637	    0.042809	   -0.017876	   -0.002802	   -0.020678	    0.045379	    0.043855	    0.089235	   -0.029258	   -0.065188	   -0.094446	    0.046564	    0.031506	    0.078071	    0.016265	    0.006886	    0.023151	    0.007789	    0.002650	    0.010439	    0.005112	    0.009292	    0.014404	    0.003227	    0.014223	    0.017450	   -0.017458	   -0.022365	   -0.039823
     3.900	0	0	    0	    0.003521	    0.022653	    0.026174	    0.008432	    0.009733	    0.018165	    0.005196	   -0.001523	    0.003673	    0.010820	    0.009252	    0.020072	    0.021254	    0.025679	    0.046933	   -0.017696	   -0.025217	   -0.042913	    0.030675	    0.025572	    0.056247	   -0.046492	   -0.054726	   -0.101218	    0.031113	    0.023778	    0.054892	    0.018373	    0.009917	    0.028290	    0.015335	    0.002922	    0.018257	   -0.001736	   -0.002295	   -0.004031	    0.018056	    0.026454	    0.044510	   -0.024942	    0.004031	   -0.020910	    0.048120	    0.045105	    0.093225	   -0.030214	   -0.061830	   -0.092045	    0.047199	    0.032774	    0.079973	    0.015580	    0.007685	    0.023265	    0.007176	    0.003600	    0.010776	    0.004736	    0.010624	    0.015361	    0.001888	    0.016380	    0.018268	   -0.015560	   -0.024513	   -0.040074
     3.975	0	0	    0	    0.002720	    0.026561	    0.029282	    0.009757	    0.009867	    0.019624	    0.004505	   -0.001592	    0.002913	    0.008326	    0.011298	    0.019625	    0.022635	    0.025372	    0.048007	   -0.012802	   -0.024229	   -0.037031	    0.037667	    0.021719	    0.059386	   -0.045357	   -0.057337	   -0.102694	    0.029027	    0.023382	    0.052409	    0.017179	    0.010395	    0.027574	    0.015500	    0.002589	    0.018089	   -0.002435	   -0.002035	   -0.004470	    0.013213	    0.029734	    0.042946	   -0.022594	    0.003668	   -0.018926	    0.053155	    0.038367	    0.091522	   -0.033722	   -0.062050	   -0.095772	    0.044433	    0.032507	    0.076940	    0.015801	    0.006970	    0.022772	    0.007021	    0.003368	    0.010389	    0.002959	    0.010278	    0.013237	    0.001204	    0.016283	    0.017487	   -0.010821	   -0.027802	   -0.038623
     4.050	0	0	    0	    0.022067	    0.008849	    0.030916	    0.010260	    0.008572	    0.018831	    0.005585	   -0.003542	    0.002043	    0.012659	    0.007540	    0.020199	    0.025507	    0.021386	    0.046893	   -0.020573	   -0.020459	   -0.041032	    0.023484	    0.037436	    0.060920	   -0.043669	   -0.057334	   -0.101004	    0.031150	    0.021929	    0.053080	    0.016026	    0.010190	    0.026216	    0.014839	    0.003721	    0.018560	   -0.002221	   -0.002504	   -0.004725	    0.017190	    0.024736	    0.041927	   -0.021731	    0.002593	   -0.019138	    0.051425	    0.044391	    0.095817	   -0.030229	   -0.064956	   -0.095185	    0.044784	    0.031701	    0.076485	    0.014674	    0.007204	    0.021878	    0.006789	    0.003331	    0.010120	    0.002932	    0.009028	    0.011960	    0.001948	    0.015100	    0.017048	   -0.014184	   -0.026117	   -0.040302
     4.125	0	0	    0	    0.026992	    0.000670	    0.027661	    0.007191	    0.010049	    0.017240	    0.004099	   -0.002326	    0.001773	    0.013464	    0.006896	    0.020360	    0.025921	    0.020510	    0.046430	   -0.018091	   -0.024125	   -0.042216	    0.030998	    0.030934	    0.061932	   -0.043606	   -0.060912	   -0.104518	    0.029786	    0.021760	    0.051547	    0.015496	    0.010135	    0.025632	    0.014795	    0.003537	    0.018331	   -0.002431	   -0.002422	   -0.004853	    0.015256	    0.026383	    0.041639	   -0.017914	   -0.001779	   -0.019693	    0.049505	    0.046888	    0.096393	   -0.033557	   -0.064578	   -0.098134	    0.042722	    0.032270	    0.074992	    0.014099	    0.007207	    0.021305	    0.005851	    0.003450	    0.009302	    0.001843	    0.008842	    0.010685	    0.001907	    0.014034	    0.015940	   -0.010986	   -0.026977	   -0.037963
     4.200	0	0	    0	    0.023578	    0.009871	    0.033449	    0.005557	    0.012464	    0.018021	   -0.000450	    0.001221	    0.000771	    0.012365	    0.008405	    0.020770	    0.024985	    0.022060	    0.047045	   -0.019551	   -0.024077	   -0.043628	    0.027116	    0.034040	    0.061156	   -0.045625	   -0.057970	   -0.103594	    0.026953	    0.022554	    0.049507	    0.014246	    0.009927	    0.024173	    0.014923	    0.002970	    0.017893	   -0.003264	   -0.002274	   -0.005538	    0.011274	    0.028546	    0.039820	   -0.023793	    0.002625	   -0.021168	    0.055418	    0.042149	    0.097567	   -0.036499	   -0.064078	   -0.100578	    0.040612	    0.031320	    0.071932	    0.013208	    0.006828	    0.020037	    0.005132	    0.003267	    0.008399	   -0.000021	    0.008629	    0.008607	   -0.000474	    0.015159	    0.014685	   -0.018365	   -0.023148	   -0.041513
     4.275	0	0	    0	    0.003657	    0.014866	    0.018523	    0.003706	    0.011325	    0.015032	   -0.001541	    0.001928	    0.000387	    0.008868	    0.010003	    0.018872	    0.018634	    0.022924	    0.041558	   -0.024614	   -0.025899	   -0.050513	    0.014930	    0.039672	    0.054602	   -0.048283	   -0.056523	   -0.104806	    0.022441	    0.022410	    0.044850	    0.012215	    0.009591	    0.021807	    0.013016	    0.003839	    0.016855	   -0.004768	   -0.002186	   -0.006954	    0.010612	    0.026320	    0.036933	   -0.023379	    0.001447	   -0.021933	    0.042299	    0.050674	    0.092973	   -0.039419	   -0.064767	   -0.104186	    0.037916	    0.030588	    0.068504	    0.011295	    0.006988	    0.018283	    0.003441	    0.003461	    0.006902	   -0.002578	    0.008348	    0.005770	   -0.000767	    0.013383	    0.012616	   -0.023212	   -0.020208	   -0.043420
     4.350	0	0	    0	    0.011237	    0.014817	    0.026054	    0.003639	    0.012139	    0.015778	   -0.002849	    0.005085	    0.002235	    0.009048	    0.010016	    0.019063	    0.018837	    0.024040	    0.042877	   -0.023836	   -0.021716	   -0.045553	    0.022963	    0.035180	    0.058142	   -0.049691	   -0.054730	   -0.104421	    0.020978	    0.021062	    0.042040	    0.011609	    0.009393	    0.021001	    0.012681	    0.003447	    0.016128	   -0.005961	   -0.002279	   -0.008239	    0.008570	    0.027048	    0.035618	   -0.021271	    0.000382	   -0.020889	    0.050750	    0.043615	    0.094366	   -0.041660	   -0.065628	   -0.107288	    0.034847	    0.030307	    0.065155	    0.010497	    0.006588	    0.017085	    0.002354	    0.003268	    0.005622	   -0.004342	    0.007821	    0.003479	   -0.002471	    0.013460	    0.010989	   -0.017047	   -0.024391	   -0.041438
     4.425	0	0	    0	   -0.000361	    0.019963	    0.019602	    0.003278	    0.009388	    0.012666	   -0.006905	    0.005861	   -0.001044	    0.006746	    0.010738	    0.017484	    0.016360	    0.024050	    0.040410	   -0.031869	   -0.019188	   -0.051058	    0.019440	    0.039700	    0.059139	   -0.049395	   -0.057433	   -0.106828	    0.015137	    0.022107	    0.037243	    0.009191	    0.010312	    0.019503	    0.011763	    0.003173	    0.014936	   -0.007285	   -0.002123	   -0.009408	    0.006612	    0.025207	    0.031819	   -0.028784	    0.005939	   -0.022845	    0.040439	    0.054674	    0.095113	   -0.045119	   -0.066698	   -0.111817	    0.032311	    0.029707	    0.062018	    0.008569	    0.006697	    0.015266	    0.000674	    0.003345	    0.004019	   -0.007242	    0.008596	    0.001353	   -0.005308	    0.014487	    0.009179	   -0.021756	   -0.021123	   -0.042879
     4.500	0	0	    0	    0.008140	    0.018753	    0.026893	    0.001440	    0.011689	    0.013129	    0.000384	   -0.004743	   -0.004358	    0.005278	    0.010879	    0.016157	    0.015566	    0.023915	    0.039481	   -0.022499	   -0.028586	   -0.051085	    0.032345	    0.023623	    0.055968	   -0.052751	   -0.055468	   -0.108219	    0.014086	    0.021738	    0.035824	    0.007368	    0.009985	    0.017353	    0.010539	    0.003141	    0.013680	   -0.008998	   -0.001827	   -0.010825	    0.003150	    0.027883	    0.031034	   -0.025124	   -0.001156	   -0.026280	    0.039761	    0.052992	    0.092752	   -0.047759	   -0.066500	   -0.114259	    0.030014	    0.028567	    0.058581	    0.006951	    0.006189	    0.013140	   -0.000883	    0.003354	    0.002470	   -0.009796	    0.008059	   -0.001737	   -0.006967	    0.013878	    0.006911	   -0.020634	   -0.025892	   -0.046526
     4.575	0	0	    0	    0.002581	    0.017175	    0.019756	    0.000048	    0.010740	    0.010788	   -0.004493	    0.001925	   -0.002569	    0.005028	    0.010228	    0.015256	    0.012723	    0.025738	    0.038461	   -0.031624	   -0.021296	   -0.052920	    0.019879	    0.036141	    0.056020	   -0.051635	   -0.058221	   -0.109856	    0.013150	    0.017882	    0.031031	    0.005947	    0.009674	    0.015620	    0.010231	    0.002523	    0.012754	   -0.010454	   -0.002015	   -0.012469	    0.002441	    0.025149	    0.027590	   -0.030742	    0.004770	   -0.025972	    0.047422	    0.044950	    0.092372	   -0.050186	   -0.067681	   -0.117866	    0.027514	    0.027897	    0.055412	    0.005533	    0.005720	    0.011253	   -0.002635	    0.003276	    0.000642	   -0.011828	    0.007291	   -0.004537	   -0.008524	    0.014033	    0.005509	   -0.019284	   -0.026102	   -0.045386
     4.650	0	0	    0	    0.005884	    0.008275	    0.014158	   -0.001759	    0.010205	    0.008446	   -0.010067	    0.001331	   -0.008736	    0.005052	    0.007899	    0.012951	    0.013525	    0.022613	    0.036138	   -0.032146	   -0.022931	   -0.055077	    0.020829	    0.036035	    0.056864	   -0.053343	   -0.057957	   -0.111300	    0.008316	    0.018907	    0.027222	    0.004252	    0.009823	    0.014075	    0.008567	    0.002494	    0.011060	   -0.011707	   -0.002489	   -0.014196	   -0.000997	    0.026994	    0.025997	   -0.029216	    0.001068	   -0.028149	    0.044730	    0.044318	    0.089048	   -0.053751	   -0.067102	   -0.120853	    0.024029	    0.027602	    0.051631	    0.004007	    0.004924	    0.008931	   -0.004423	    0.003140	   -0.001282	   -0.015276	    0.008049	   -0.007226	   -0.010817	    0.013802	    0.002985	   -0.023439	   -0.023397	   -0.046836
     4.725	0	0	    0	    0.001629	    0.018367	    0.019996	   -0.002491	    0.011635	    0.009144	   -0.007497	    0.002637	   -0.004860	    0.002597	    0.009914	    0.012511	    0.010151	    0.024410	    0.034560	   -0.031445	   -0.024898	   -0.056343	    0.011130	    0.047155	    0.058285	   -0.054994	   -0.056813	   -0.111807	    0.006012	    0.018897	    0.024909	    0.003877	    0.008367	    0.012245	    0.008524	    0.002481	    0.011005	   -0.013883	   -0.002055	   -0.015938	   -0.005116	    0.026537	    0.021421	   -0.029176	    0.003494	   -0.025682	    0.046160	    0.046942	    0.093102	   -0.055521	   -0.068571	   -0.124092	    0.021369	    0.026555	    0.047924	    0.004163	    0.004415	    0.008578	   -0.003567	    0.001900	   -0.001667	   -0.016954	    0.006014	   -0.010940	   -0.011021	    0.013216	    0.002195	   -0.014174	   -0.031931	   -0.046105
     4.800	0	0	    0	    0.005289	    0.017573	    0.022862	    0.002754	    0.013950	    0.016704	    0.001874	   -0.000470	    0.001404	    0.006229	    0.009431	    0.015661	    0.013787	    0.025794	    0.039581	   -0.028313	   -0.021932	   -0.050245	    0.018478	    0.039804	    0.058282	   -0.052801	   -0.053675	   -0.106476	    0.025493	    0.018085	    0.043579	    0.011293	    0.008686	    0.019978	    0.012690	    0.002936	    0.015626	   -0.009703	   -0.003409	   -0.013111	    0.006775	    0.023180	    0.029956	   -0.025020	    0.003774	   -0.021246	    0.050735	    0.043825	    0.094560	   -0.035095	   -0.066006	   -0.101100	    0.037662	    0.027559	    0.065221	    0.009641	    0.005051	    0.014692	    0.001448	    0.003126	    0.004574	   -0.007951	    0.007930	   -0.000021	   -0.001571	    0.013756	    0.012185	   -0.014941	   -0.027707	   -0.042647
     4.875	0	0	    0	    0.017973	    0.005320	    0.023293	    0.007914	    0.011275	    0.019189	    0.004546	    0.000817	    0.005363	    0.012030	    0.008953	    0.020983	    0.021477	    0.022515	    0.043993	   -0.024324	   -0.021129	   -0.045453	    0.032180	    0.030205	    0.062385	   -0.043604	   -0.058579	   -0.102183	    0.032005	    0.023085	    0.055090	    0.014708	    0.008904	    0.023612	    0.014991	    0.002954	    0.017945	   -0.004941	   -0.002212	   -0.007153	    0.012007	    0.023680	    0.035687	   -0.023510	    0.002224	   -0.021286	    0.056062	    0.041848	    0.097910	   -0.029156	   -0.062186	   -0.091343	    0.042121	    0.032762	    0.074882	    0.011359	    0.005644	    0.017002	    0.003636	    0.003785	    0.007421	   -0.002939	    0.008468	    0.005529	    0.000345	    0.015271	    0.015615	   -0.016948	   -0.025098	   -0.042046
     4.950	0	0	    0	    0.001221	    0.026507	    0.027728	    0.007010	    0.014446	    0.021455	    0.003170	    0.000746	    0.003915	    0.011672	    0.010771	    0.022442	    0.018771	    0.024524	    0.043294	   -0.023066	   -0.025456	   -0.048522	    0.023375	    0.033092	    0.056467	   -0.044678	   -0.056459	   -0.101137	    0.033422	    0.025933	    0.059355	    0.015460	    0.010904	    0.026364	    0.015329	    0.003869	    0.019197	   -0.003678	   -0.001175	   -0.004853	    0.010846	    0.025757	    0.036603	   -0.026344	    0.008389	   -0.017955	    0.049561	    0.046891	    0.096452	   -0.027625	   -0.060256	   -0.087881	    0.044675	    0.034258	    0.078933	    0.011999	    0.006378	    0.018377	    0.004620	    0.004307	    0.008927	   -0.001568	    0.009471	    0.007903	    0.002998	    0.013752	    0.016749	   -0.016080	   -0.027294	   -0.043375
     5.025	0	0	    0	    0.013961	    0.010393	    0.024354	    0.005646	    0.015727	    0.021373	    0.003027	   -0.001896	    0.001131	    0.009606	    0.013247	    0.022853	    0.015921	    0.025644	    0.041566	   -0.023933	   -0.028539	   -0.052472	    0.021138	    0.032831	    0.053969	   -0.046239	   -0.055644	   -0.101883	    0.029956	    0.028696	    0.058652	    0.014060	    0.010531	    0.024591	    0.014994	    0.003790	    0.018784	   -0.004009	   -0.000449	   -0.004457	    0.009825	    0.025496	    0.035321	   -0.024137	    0.000456	   -0.023681	    0.046198	    0.047595	    0.093793	   -0.031010	   -0.059805	   -0.090815	    0.042589	    0.034130	    0.076719	    0.011422	    0.006266	    0.017687	    0.004091	    0.004342	    0.008433	   -0.003857	    0.009575	    0.005718	   -0.000355	    0.015249	    0.014894	   -0.023673	   -0.022213	   -0.045886
     5.100	0	0	    0	    0.015231	    0.013612	    0.028842	    0.006403	    0.015548	    0.021950	    0.003436	    0.001611	    0.005047	    0.013087	    0.011571	    0.024658	    0.018972	    0.026093	    0.045064	   -0.024465	   -0.023181	   -0.047646	    0.026729	    0.032645	    0.059375	   -0.043463	   -0.057800	   -0.101263	    0.032303	    0.027011	    0.059314	    0.014286	    0.010796	    0.025083	    0.016109	    0.003417	    0.019526	   -0.003809	   -0.000738	   -0.004547	    0.008088	    0.028397	    0.036486	   -0.021516	    0.002066	   -0.019450	    0.054154	    0.044583	    0.098737	   -0.029932	   -0.060281	   -0.090212	    0.043409	    0.034164	    0.077573	    0.012067	    0.006164	    0.018231	    0.004495	    0.004431	    0.008926	   -0.003957	    0.010465	    0.006508	   -0.001089	    0.016646	    0.015557	   -0.013338	   -0.027172	   -0.040510
     5.175	0	0	    0	    0.007878	    0.019047	    0.026925	    0.007627	    0.013769	    0.021396	    0.001731	    0.001249	    0.002980	    0.014330	    0.009741	    0.024071	    0.019186	    0.023649	    0.042835	   -0.027592	   -0.024606	   -0.052198	    0.019076	    0.037094	    0.056170	   -0.043750	   -0.057431	   -0.101182	    0.028563	    0.029245	    0.057808	    0.012728	    0.011238	    0.023967	    0.015931	    0.003518	    0.019450	   -0.003690	   -0.000925	   -0.004615	    0.008963	    0.025695	    0.034659	   -0.023196	    0.003112	   -0.020084	    0.057507	    0.043195	    0.100702	   -0.031587	   -0.059423	   -0.091010	    0.042216	    0.034145	    0.076362	    0.011325	    0.005937	    0.017262	    0.004224	    0.004230	    0.008454	   -0.003825	    0.009109	    0.005284	   -0.000030	    0.015345	    0.015315	   -0.009758	   -0.030035	   -0.039793
     5.250	0	0	    0	    0.017432	    0.006963	    0.024395	    0.009838	    0.010320	    0.020158	    0.009224	   -0.007136	    0.002088	    0.014043	    0.010104	    0.024147	    0.022758	    0.021288	    0.044046	   -0.014216	   -0.036593	   -0.050810	    0.037001	    0.015959	    0.052959	   -0.045966	   -0.056184	   -0.102150	    0.027578	    0.027379	    0.054957	    0.013228	    0.009187	    0.022415	    0.015040	    0.003913	    0.018953	   -0.004138	   -0.000949	   -0.005087	    0.007891	    0.026527	    0.034419	   -0.019072	   -0.000433	   -0.019506	    0.047514	    0.047275	    0.094789	   -0.033207	   -0.061020	   -0.094227	    0.040139	    0.032978	    0.073116	    0.009608	    0.006131	    0.015739	    0.003175	    0.004392	    0.007567	   -0.005640	    0.008977	    0.003337	   -0.002247	    0.016509	    0.014262	   -0.015730	   -0.027013	   -0.042742
     5.325	0	0	    0	    0.005335	    0.021312	    0.026647	    0.005041	    0.014866	    0.019907	    0.002917	   -0.000542	    0.002376	    0.012061	    0.011374	    0.023435	    0.013709	    0.028415	    0.042124	   -0.023101	   -0.026115	   -0.049216	    0.028238	    0.033332	    0.061569	   -0.047228	   -0.053032	   -0.100260	    0.021781	    0.030413	    0.052194	    0.010808	    0.010151	    0.020960	    0.014159	    0.003824	    0.017982	   -0.005285	   -0.000670	   -0.005955	    0.003830	    0.029220	    0.033050	   -0.022574	    0.001343	   -0.021231	    0.050930	    0.048701	    0.099631	   -0.037461	   -0.059150	   -0.096611	    0.037290	    0.033295	    0.070585	    0.008354	    0.006163	    0.014517	    0.002255	    0.004166	    0.006420	   -0.008927	    0.010461	    0.001534	   -0.004569	    0.017135	    0.012566	   -0.019367	   -0.024602	   -0.043968
     5.400	0	0	    0	    0.007223	    0.023733	    0.030957	    0.001546	    0.018096	    0.019642	   -0.000216	    0.001191	    0.000975	    0.012139	    0.010167	    0.022307	    0.016948	    0.025015	    0.041964	   -0.024950	   -0.023281	   -0.048230	    0.008832	    0.051880	    0.060712	   -0.045994	   -0.056528	   -0.102522	    0.023161	    0.025760	    0.048922	    0.009648	    0.010349	    0.019997	    0.013722	    0.003235	    0.016957	   -0.006305	   -0.000739	   -0.007044	    0.006171	    0.024133	    0.030304	   -0.026781	    0.003397	   -0.023384	    0.045844	    0.055131	    0.100975	   -0.038097	   -0.062756	   -0.100854	    0.035002	    0.032470	    0.067473	    0.007891	    0.005500	    0.013391	    0.001133	    0.004117	    0.005250	   -0.009370	    0.008774	   -0.000597	   -0.004612	    0.014995	    0.010383	   -0.020076	   -0.025407	   -0.045482
     5.475	0	0	    0	    0.001323	    0.023508	    0.024831	    0.002982	    0.014893	    0.017875	    0.000038	    0.000884	    0.000922	    0.009370	    0.011821	    0.021191	    0.014795	    0.025623	    0.040418	   -0.027511	   -0.024104	   -0.051615	    0.027249	    0.038409	    0.065659	   -0.048852	   -0.054650	   -0.103501	    0.019178	    0.025678	    0.044856	    0.008960	    0.009569	    0.018529	    0.012460	    0.003596	    0.016056	   -0.007795	   -0.000588	   -0.008383	    0.002302	    0.026529	    0.028831	   -0.022793	   -0.001524	   -0.024317	    0.056082	    0.042283	    0.098365	   -0.042032	   -0.062119	   -0.104152	    0.032608	    0.032072	    0.064680	    0.006456	    0.005224	    0.011680	    0.000026	    0.003841	    0.003867	   -0.011483	    0.008815	   -0.002668	   -0.006495	    0.015272	    0.008777	   -0.019608	   -0.025594	   -0.045202
     5.550	0	0	    0	    0.005467	    0.022097	    0.027563	    0.003438	    0.014163	    0.017601	    0.002577	   -0.003503	   -0.000926	    0.007907	    0.011458	    0.019365	    0.012579	    0.026973	    0.039553	   -0.026024	   -0.028228	   -0.054252	    0.011488	    0.054331	    0.065820	   -0.046584	   -0.059640	   -0.106224	    0.016702	    0.025004	    0.041706	    0.006539	    0.009528	    0.016067	    0.011707	    0.002960	    0.014667	   -0.009379	   -0.000661	   -0.010040	    0.000909	    0.025767	    0.026677	   -0.024005	    0.003148	   -0.020857	    0.045007	    0.052186	    0.097193	   -0.043581	   -0.064090	   -0.107672	    0.030354	    0.030547	    0.060901	    0.004706	    0.004974	    0.009679	   -0.001742	    0.003991	    0.002249	   -0.014076	    0.008947	   -0.005129	   -0.006092	    0.013045	    0.006954	   -0.022273	   -0.022774	   -0.045047
     5.625	0	0	    0	    0.010849	    0.014331	    0.025179	   -0.000783	    0.016029	    0.015246	   -0.005723	    0.001664	   -0.004060	    0.007447	    0.011551	    0.018999	    0.013153	    0.024157	    0.037310	   -0.035902	   -0.018811	   -0.054713	    0.010975	    0.051021	    0.061996	   -0.047365	   -0.057694	   -0.105058	    0.014308	    0.024280	    0.038588	    0.004268	    0.010775	    0.015043	    0.010441	    0.003316	    0.013757	   -0.010006	   -0.001239	   -0.011245	   -0.001188	    0.025367	    0.024179	   -0.028817	    0.003421	   -0.025396	    0.048252	    0.048709	    0.096961	   -0.047594	   -0.062427	   -0.110020	    0.028121	    0.030336	    0.058457	    0.003524	    0.004690	    0.008213	   -0.003095	    0.003819	    0.000725	   -0.016189	    0.008804	   -0.007385	   -0.010443	    0.015827	    0.005383	   -0.021727	   -0.026630	   -0.048357
     5.700	0	0	    0	    0.003521	    0.022653	    0.026174	   -0.000184	    0.014940	    0.014756	   -0.001956	   -0.001211	   -0.003167	    0.005950	    0.011119	    0.017069	    0.010146	    0.026518	    0.036664	   -0.024971	   -0.029563	   -0.054534	    0.020872	    0.040690	    0.061562	   -0.050609	   -0.057412	   -0.108021	    0.011791	    0.023839	    0.035630	    0.005140	    0.008732	    0.013873	    0.009585	    0.002965	    0.012550	   -0.011515	   -0.001372	   -0.012887	   -0.002953	    0.025432	    0.022479	   -0.027059	    0.000271	   -0.026788	    0.046909	    0.049456	    0.096365	   -0.049954	   -0.063707	   -0.113660	    0.026182	    0.029676	    0.055858	    0.002242	    0.004180	    0.006421	   -0.004648	    0.003550	   -0.001097	   -0.017968	    0.007761	   -0.010207	   -0.010437	    0.013825	    0.003388	   -0.029284	   -0.021259	   -0.050542
     5.775	0	0	    0	   -0.005687	    0.030467	    0.024780	   -0.000823	    0.014646	    0.013824	   -0.005816	   -0.000978	   -0.006793	    0.004608	    0.010639	    0.015248	    0.009868	    0.024756	    0.034624	   -0.035668	   -0.023124	   -0.058792	    0.022835	    0.034322	    0.057158	   -0.052210	   -0.055197	   -0.107407	    0.007446	    0.024681	    0.032127	    0.002758	    0.009416	    0.012174	    0.008425	    0.002685	    0.011110	   -0.013055	   -0.001285	   -0.014341	   -0.005485	    0.025821	    0.020336	   -0.030822	    0.004586	   -0.026236	    0.042288	    0.050890	    0.093178	   -0.052449	   -0.064402	   -0.116850	    0.023187	    0.029104	    0.052291	    0.000961	    0.003594	    0.004555	   -0.005810	    0.003156	   -0.002654	   -0.020796	    0.008097	   -0.012698	   -0.013395	    0.014424	    0.001029	   -0.028252	   -0.024488	   -0.052740
     5.850	0	0	    0	    0.005086	    0.014942	    0.020028	    0.001157	    0.016478	    0.017635	   -0.004354	    0.000299	   -0.004055	    0.005225	    0.009737	    0.014962	    0.008710	    0.024504	    0.033214	   -0.035828	   -0.018299	   -0.054127	    0.008406	    0.055248	    0.063654	   -0.049711	   -0.058744	   -0.108455	    0.019779	    0.017137	    0.036916	    0.007124	    0.008076	    0.015200	    0.010959	    0.003207	    0.014166	   -0.012344	   -0.002480	   -0.014824	    0.002211	    0.018486	    0.020697	   -0.027867	    0.003833	   -0.024035	    0.048957	    0.049724	    0.098681	   -0.038898	   -0.068359	   -0.107257	    0.032624	    0.026121	    0.058745	    0.006239	    0.003198	    0.009437	   -0.000176	    0.002205	    0.002029	   -0.014045	    0.005899	   -0.008147	   -0.005272	    0.013252	    0.007980	   -0.021534	   -0.026661	   -0.048195
     5.925	0	0	    0	    0.014508	    0.005876	    0.020384	    0.005610	    0.016478	    0.022088	   -0.003934	    0.009235	    0.005300	    0.010856	    0.011417	    0.022273	    0.017238	    0.024662	    0.041900	   -0.032912	   -0.013303	   -0.046215	    0.016306	    0.050147	    0.066453	   -0.042840	   -0.057608	   -0.100448	    0.028588	    0.028074	    0.056662	    0.012117	    0.010026	    0.022144	    0.013758	    0.003700	    0.017458	   -0.006205	   -0.001817	   -0.008022	    0.005521	    0.025445	    0.030967	   -0.025095	    0.008402	   -0.016693	    0.057584	    0.044701	    0.102285	   -0.029424	   -0.059783	   -0.089208	    0.041755	    0.033078	    0.074833	    0.008553	    0.004683	    0.013236	    0.002043	    0.004069	    0.006113	   -0.007902	    0.009205	    0.001303	   -0.001458	    0.015500	    0.014041	   -0.017215	   -0.021360	   -0.038575
     6.000	0	0	    0	    0.018542	    0.015257	    0.033799	    0.006959	    0.016987	    0.023946	    0.005420	    0.000051	    0.005472	    0.013499	    0.011409	    0.024908	    0.017238	    0.024662	    0.041900	   -0.027643	   -0.022200	   -0.049844	    0.018850	    0.045941	    0.064791	   -0.045859	   -0.053206	   -0.099065	    0.031966	    0.030345	    0.062311	    0.013946	    0.010798	    0.024743	    0.015052	    0.004146	    0.019199	   -0.004300	   -0.000631	   -0.004931	    0.009004	    0.024816	    0.033821	   -0.022908	    0.002777	   -0.020131	    0.052994	    0.049176	    0.102169	   -0.026743	   -0.058297	   -0.085040	    0.044566	    0.034860	    0.079426	    0.009982	    0.005203	    0.015184	    0.004031	    0.004308	    0.008339	   -0.005751	    0.010528	    0.004777	    0.000010	    0.014857	    0.014867	   -0.020160	   -0.023904	   -0.044064
     6.075	0	0	    0	    0.013946	    0.013299	    0.027245	    0.009089	    0.015764	    0.024853	    0.009632	    0.000106	    0.009738	    0.014908	    0.011374	    0.026283	    0.020573	    0.025470	    0.046043	   -0.015941	   -0.026852	   -0.042793	    0.041776	    0.027098	    0.068874	   -0.040176	   -0.057275	   -0.097451	    0.032574	    0.030630	    0.063204	    0.013708	    0.010539	    0.024247	    0.015855	    0.004049	    0.019904	   -0.002974	   -0.000357	   -0.003331	    0.009255	    0.026314	    0.035569	   -0.020468	    0.002663	   -0.017805	    0.055175	    0.052028	    0.107203	   -0.028688	   -0.056093	   -0.084780	    0.043828	    0.035934	    0.079762	    0.009443	    0.005373	    0.014816	    0.003835	    0.004507	    0.008343	   -0.005513	    0.010967	    0.005454	   -0.001313	    0.016442	    0.015129	   -0.017269	   -0.024589	   -0.041859
     6.150	0	0	    0	    0.002192	    0.023370	    0.025562	    0.005984	    0.018364	    0.024348	    0.000817	    0.006437	    0.007254	    0.012741	    0.012125	    0.024866	    0.020528	    0.024784	    0.045312	   -0.025730	   -0.018145	   -0.043875	    0.009247	    0.054268	    0.063515	   -0.043438	   -0.055101	   -0.098539	    0.029635	    0.030856	    0.060491	    0.013568	    0.009845	    0.023413	    0.015333	    0.004617	    0.019949	   -0.003428	   -0.000335	   -0.003763	    0.005305	    0.029404	    0.034708	   -0.024089	    0.006530	   -0.017559	    0.048413	    0.054312	    0.102726	   -0.030374	   -0.057208	   -0.087582	    0.043198	    0.034255	    0.077453	    0.008905	    0.005453	    0.014358	    0.003928	    0.004430	    0.008358	   -0.006291	    0.010451	    0.004161	   -0.001637	    0.016074	    0.014438	   -0.021473	   -0.020470	   -0.041943
     6.225	0	0	    0	    0.016332	    0.013183	    0.029515	    0.006483	    0.018847	    0.025330	    0.005687	    0.002526	    0.008213	    0.013045	    0.013109	    0.026155	    0.020837	    0.026560	    0.047397	   -0.024785	   -0.017581	   -0.042367	    0.023066	    0.049346	    0.072412	   -0.040820	   -0.057638	   -0.098458	    0.031430	    0.030446	    0.061876	    0.012315	    0.009903	    0.022219	    0.015500	    0.004454	    0.019954	   -0.002759	   -0.000828	   -0.003587	    0.006775	    0.028243	    0.035018	   -0.023902	    0.004632	   -0.019270	    0.053161	    0.053283	    0.106444	   -0.029401	   -0.057604	   -0.087005	    0.042439	    0.034869	    0.077308	    0.008470	    0.005602	    0.014072	    0.003971	    0.004339	    0.008310	   -0.005979	    0.010068	    0.004090	   -0.001490	    0.016137	    0.014647	   -0.020106	   -0.024258	   -0.044364
     6.300	0	0	    0	    0.010810	    0.017266	    0.028075	    0.009393	    0.015211	    0.024603	    0.005139	    0.003516	    0.008654	    0.013392	    0.013648	    0.027040	    0.020083	    0.024256	    0.044338	   -0.020706	   -0.025617	   -0.046322	    0.026167	    0.038843	    0.065010	   -0.044530	   -0.057610	   -0.102140	    0.028136	    0.031268	    0.059404	    0.012005	    0.009235	    0.021241	    0.014977	    0.004819	    0.019796	   -0.003493	   -0.000529	   -0.004021	    0.005881	    0.028058	    0.033939	   -0.017910	   -0.004013	   -0.021923	    0.038591	    0.063112	    0.101703	   -0.032717	   -0.058166	   -0.090883	    0.040407	    0.034172	    0.074579	    0.008292	    0.004835	    0.013127	    0.002684	    0.004804	    0.007488	   -0.007638	    0.010082	    0.002444	   -0.003169	    0.016892	    0.013723	   -0.026377	   -0.021231	   -0.047608
     6.375	0	0	    0	    0.005529	    0.025883	    0.031411	    0.008234	    0.015736	    0.023970	    0.010103	   -0.006390	    0.003712	    0.012492	    0.012813	    0.025305	    0.018640	    0.027902	    0.046542	   -0.018688	   -0.024028	   -0.042716	    0.027636	    0.039829	    0.067465	   -0.044027	   -0.055922	   -0.099949	    0.026279	    0.030927	    0.057206	    0.010182	    0.009741	    0.019923	    0.014463	    0.004033	    0.018496	   -0.003795	   -0.000690	   -0.004485	    0.005232	    0.028650	    0.033882	   -0.020331	   -0.000434	   -0.020765	    0.053647	    0.048226	    0.101873	   -0.034837	   -0.057390	   -0.092227	    0.038689	    0.033270	    0.071959	    0.007014	    0.004889	    0.011903	    0.002748	    0.004086	    0.006834	   -0.008829	    0.010349	    0.001520	   -0.003117	    0.016180	    0.013063	   -0.020195	   -0.024934	   -0.045129
     6.450	0	0	    0	    0.019840	    0.009715	    0.029555	    0.005319	    0.017210	    0.022529	    0.001404	    0.001032	    0.002436	    0.012088	    0.012207	    0.024295	    0.017282	    0.025345	    0.042627	   -0.023985	   -0.024446	   -0.048431	    0.028100	    0.037418	    0.065518	   -0.043797	   -0.058151	   -0.101949	    0.024093	    0.028752	    0.052845	    0.009074	    0.009394	    0.018468	    0.013547	    0.003940	    0.017487	   -0.004852	   -0.001173	   -0.006026	    0.003362	    0.027243	    0.030605	   -0.022129	    0.001451	   -0.020678	    0.048406	    0.052785	    0.101192	   -0.038003	   -0.058750	   -0.096753	    0.036038	    0.032410	    0.068448	    0.006406	    0.004663	    0.011069	    0.001190	    0.004222	    0.005411	   -0.010078	    0.008876	   -0.001202	   -0.004536	    0.015403	    0.010867	   -0.024417	   -0.024847	   -0.049264
     6.525	0	0	    0	   -0.000979	    0.023565	    0.022586	    0.005111	    0.014043	    0.019154	   -0.002930	    0.002137	   -0.000793	    0.009722	    0.012358	    0.022080	    0.013149	    0.028400	    0.041549	   -0.024931	   -0.024992	   -0.049922	    0.032992	    0.025527	    0.058519	   -0.046007	   -0.056700	   -0.102707	    0.021128	    0.028007	    0.049135	    0.008083	    0.008695	    0.016778	    0.012018	    0.003922	    0.015939	   -0.006037	   -0.000994	   -0.007031	    0.002725	    0.026279	    0.029005	   -0.024689	   -0.001113	   -0.025802	    0.043696	    0.052497	    0.096193	   -0.039760	   -0.060032	   -0.099792	    0.033665	    0.032126	    0.065791	    0.004676	    0.004861	    0.009537	    0.000273	    0.003960	    0.004233	   -0.012165	    0.009617	   -0.002548	   -0.005189	    0.014140	    0.008951	   -0.023262	   -0.026391	   -0.049653
     6.600	0	0	    0	    0.018546	    0.009414	    0.027960	    0.002014	    0.017544	    0.019558	   -0.003581	    0.006906	    0.003325	    0.010552	    0.012290	    0.022841	    0.019084	    0.023004	    0.042088	   -0.029731	   -0.021902	   -0.051633	    0.015060	    0.054512	    0.069573	   -0.041826	   -0.058485	   -0.100311	    0.016735	    0.029029	    0.045764	    0.006087	    0.009402	    0.015488	    0.012579	    0.002939	    0.015518	   -0.006605	   -0.001675	   -0.008280	    0.000354	    0.026875	    0.027229	   -0.025175	    0.003329	   -0.021846	    0.055093	    0.049432	    0.104525	   -0.042568	   -0.060357	   -0.102925	    0.031470	    0.031380	    0.062851	    0.004397	    0.003983	    0.008380	   -0.000710	    0.003631	    0.002921	   -0.013250	    0.008037	   -0.005213	   -0.007294	    0.014988	    0.007694	   -0.016773	   -0.029230	   -0.046003
     6.675	0	0	    0	   -0.011743	    0.042913	    0.031170	    0.000650	    0.017777	    0.018427	   -0.004398	    0.003339	   -0.001060	    0.004974	    0.015775	    0.020750	    0.007853	    0.031898	    0.039751	   -0.035050	   -0.018769	   -0.053820	    0.029588	    0.037195	    0.066783	   -0.049933	   -0.053668	   -0.103601	    0.015007	    0.029060	    0.044067	    0.005282	    0.008718	    0.014000	    0.010728	    0.003725	    0.014453	   -0.008542	   -0.000685	   -0.009228	   -0.000981	    0.026773	    0.025792	   -0.027450	    0.002655	   -0.024795	    0.049099	    0.054911	    0.104010	   -0.043766	   -0.061421	   -0.105187	    0.029208	    0.031036	    0.060244	    0.002441	    0.004474	    0.006915	   -0.002174	    0.003877	    0.001703	   -0.015526	    0.009034	   -0.006492	   -0.008454	    0.014607	    0.006153	   -0.023257	   -0.024228	   -0.047484
     6.750	0	0	    0	    0.010342	    0.010194	    0.020536	   -0.000552	    0.017156	    0.016604	   -0.002588	   -0.003144	   -0.005732	    0.009115	    0.009324	    0.018439	    0.012721	    0.023630	    0.036350	   -0.031794	   -0.026202	   -0.057997	    0.013399	    0.037828	    0.051227	   -0.045698	   -0.061144	   -0.106843	    0.012812	    0.027300	    0.040112	    0.005045	    0.007340	    0.012385	    0.009749	    0.003205	    0.012954	   -0.009131	   -0.001825	   -0.010956	   -0.002253	    0.025593	    0.023341	   -0.028447	   -0.000241	   -0.028687	    0.048886	    0.048016	    0.096902	   -0.046834	   -0.062166	   -0.109001	    0.026754	    0.030398	    0.057153	    0.000962	    0.004193	    0.005155	   -0.003656	    0.003612	   -0.000044	   -0.017727	    0.008519	   -0.009209	   -0.010591	    0.014798	    0.004206	   -0.033324	   -0.019748	   -0.053072
     6.825	0	0	    0	    0.015441	    0.005665	    0.021106	   -0.002513	    0.017628	    0.015115	   -0.004664	    0.001239	   -0.003425	    0.005312	    0.012792	    0.018104	    0.010219	    0.025775	    0.035994	   -0.030264	   -0.028109	   -0.058372	    0.022876	    0.030604	    0.053481	   -0.051544	   -0.055482	   -0.107026	    0.009845	    0.026966	    0.036811	    0.003682	    0.007966	    0.011649	    0.008490	    0.003329	    0.011819	   -0.010882	   -0.001405	   -0.012287	   -0.005065	    0.026179	    0.021114	   -0.026473	   -0.002676	   -0.029149	    0.046965	    0.050312	    0.097277	   -0.049348	   -0.062401	   -0.111749	    0.024856	    0.029818	    0.054674	    0.000228	    0.003508	    0.003737	   -0.004648	    0.003131	   -0.001517	   -0.019055	    0.007732	   -0.011323	   -0.012831	    0.015159	    0.002328	   -0.028899	   -0.024279	   -0.053178
     6.900	0	0	    0	    0.003993	    0.016427	    0.020420	   -0.001609	    0.015328	    0.013719	   -0.009003	    0.003038	   -0.005965	    0.004158	    0.013143	    0.017300	    0.008769	    0.026827	    0.035596	   -0.031092	   -0.028159	   -0.059252	    0.015569	    0.038144	    0.053713	   -0.050234	   -0.058640	   -0.108873	    0.009345	    0.023798	    0.033143	    0.002340	    0.007765	    0.010105	    0.008042	    0.003221	    0.011263	   -0.012242	   -0.001492	   -0.013734	   -0.006042	    0.025112	    0.019069	   -0.027391	   -0.001810	   -0.029201	    0.048992	    0.051013	    0.100006	   -0.051003	   -0.064393	   -0.115397	    0.023140	    0.028159	    0.051300	    0.001152	    0.002203	    0.003355	   -0.004566	    0.002560	   -0.002006	   -0.020915	    0.006932	   -0.013983	   -0.012453	    0.013790	    0.001337	   -0.017468	   -0.032509	   -0.049977
     6.975	0	0	    0	    0.019440	    0.003469	    0.022909	    0.003130	    0.017960	    0.021091	    0.004311	   -0.005020	   -0.000710	    0.007848	    0.010565	    0.018412	    0.016160	    0.022496	    0.038656	   -0.031436	   -0.018041	   -0.049477	    0.017180	    0.044386	    0.061566	   -0.044702	   -0.060102	   -0.104803	    0.025886	    0.023900	    0.049786	    0.009760	    0.007853	    0.017613	    0.011698	    0.003471	    0.015168	   -0.007882	   -0.003686	   -0.011569	    0.001779	    0.024631	    0.026410	   -0.021917	    0.000927	   -0.020990	    0.039860	    0.061057	    0.100917	   -0.033156	   -0.062193	   -0.095349	    0.037487	    0.029438	    0.066925	    0.005805	    0.003746	    0.009551	    0.001109	    0.003071	    0.004179	   -0.011688	    0.007572	   -0.004116	   -0.004284	    0.015677	    0.011393	   -0.024704	   -0.021139	   -0.045843
     7.050	0	0	    0	   -0.002054	    0.027781	    0.025727	    0.009380	    0.014354	    0.023734	    0.005180	    0.001611	    0.006791	    0.012079	    0.012463	    0.024542	    0.015754	    0.025480	    0.041234	   -0.018519	   -0.031745	   -0.050265	    0.034607	    0.031287	    0.065894	   -0.045030	   -0.056016	   -0.101046	    0.030657	    0.030104	    0.060760	    0.013160	    0.009214	    0.022374	    0.014181	    0.003684	    0.017865	   -0.003962	   -0.001446	   -0.005408	    0.005908	    0.025856	    0.031764	   -0.020318	   -0.000374	   -0.020692	    0.057033	    0.047521	    0.104553	   -0.028837	   -0.057034	   -0.085871	    0.043381	    0.033392	    0.076773	    0.008333	    0.003939	    0.012272	    0.003633	    0.003580	    0.007214	   -0.007017	    0.009693	    0.002677	   -0.002665	    0.017345	    0.014681	   -0.020724	   -0.026564	   -0.047287
     7.125	0	0	    0	    0.015791	    0.009040	    0.024831	    0.007982	    0.019676	    0.027658	    0.006094	    0.003275	    0.009369	    0.014332	    0.011849	    0.026181	    0.020280	    0.025827	    0.046107	   -0.019551	   -0.024077	   -0.043628	    0.026931	    0.041693	    0.068624	   -0.039408	   -0.059624	   -0.099031	    0.034052	    0.032032	    0.066084	    0.013901	    0.009976	    0.023877	    0.016231	    0.003303	    0.019534	   -0.001786	   -0.001274	   -0.003061	    0.008606	    0.026906	    0.035512	   -0.018310	   -0.002849	   -0.021159	    0.059853	    0.047941	    0.107794	   -0.025928	   -0.055884	   -0.081812	    0.046692	    0.034017	    0.080708	    0.009437	    0.004586	    0.014023	    0.005015	    0.004085	    0.009100	   -0.005307	    0.010585	    0.005278	   -0.000459	    0.017017	    0.016558	   -0.022366	   -0.021261	   -0.043628
     7.200	0	0	    0	    0.015605	    0.011201	    0.026805	    0.013719	    0.013289	    0.027008	    0.009085	    0.001095	    0.010180	    0.015391	    0.012627	    0.028018	    0.018238	    0.028058	    0.046296	   -0.010073	   -0.033563	   -0.043636	    0.055115	    0.008641	    0.063755	   -0.040000	   -0.058087	   -0.098087	    0.032230	    0.033448	    0.065679	    0.014876	    0.008529	    0.023405	    0.015617	    0.003592	    0.019209	   -0.001220	   -0.000593	   -0.001813	    0.007337	    0.028683	    0.036020	   -0.013802	   -0.005379	   -0.019181	    0.050357	    0.051120	    0.101477	   -0.028115	   -0.055568	   -0.083683	    0.044715	    0.034983	    0.079698	    0.009321	    0.004292	    0.013614	    0.004746	    0.004274	    0.009020	   -0.005453	    0.010433	    0.004980	   -0.001071	    0.017012	    0.015941	   -0.024190	   -0.021675	   -0.045865
     7.275	0	0	    0	    0.001765	    0.025856	    0.027621	    0.010420	    0.017024	    0.027444	    0.009787	    0.001165	    0.010952	    0.015828	    0.012205	    0.028034	    0.021861	    0.024236	    0.046098	   -0.014866	   -0.028211	   -0.043077	    0.031362	    0.036110	    0.067472	   -0.041480	   -0.056024	   -0.097503	    0.031308	    0.032875	    0.064183	    0.013777	    0.009453	    0.023229	    0.015689	    0.003919	    0.019608	   -0.001153	   -0.000859	   -0.002012	    0.007435	    0.027954	    0.035388	   -0.020627	    0.002218	   -0.018410	    0.043145	    0.060632	    0.103778	   -0.027165	   -0.056827	   -0.083992	    0.044860	    0.034365	    0.079225	    0.008937	    0.005240	    0.014177	    0.005296	    0.004057	    0.009353	   -0.004842	    0.009954	    0.005112	    0.001017	    0.014880	    0.015896	   -0.019985	   -0.022785	   -0.042770
     7.350	0	0	    0	    0.021145	    0.018864	    0.040009	    0.010175	    0.018303	    0.028478	    0.009103	    0.001157	    0.010259	    0.014898	    0.013754	    0.028652	    0.023651	    0.026636	    0.050287	   -0.015827	   -0.021532	   -0.037359	    0.046439	    0.030383	    0.076822	   -0.040628	   -0.054944	   -0.095571	    0.033001	    0.031962	    0.064962	    0.013457	    0.009141	    0.022598	    0.015306	    0.003777	    0.019083	   -0.000598	   -0.001210	   -0.001808	    0.008165	    0.029151	    0.037316	   -0.020431	    0.000462	   -0.019970	    0.057241	    0.052281	    0.109522	   -0.028257	   -0.056130	   -0.084388	    0.044666	    0.033636	    0.078302	    0.008909	    0.004700	    0.013609	    0.005253	    0.004057	    0.009310	   -0.004476	    0.009436	    0.004960	    0.000384	    0.015561	    0.015944	   -0.018125	   -0.025718	   -0.043844
     7.425	0	0	    0	    0.010519	    0.023481	    0.034000	    0.007131	    0.020269	    0.027400	    0.002526	    0.006815	    0.009341	    0.013697	    0.014898	    0.028595	    0.020083	    0.029717	    0.049800	   -0.023390	   -0.015143	   -0.038533	    0.032178	    0.044265	    0.076443	   -0.038353	   -0.059200	   -0.097553	    0.028951	    0.033105	    0.062056	    0.012315	    0.009244	    0.021560	    0.015071	    0.003693	    0.018765	   -0.001739	   -0.000741	   -0.002480	    0.007251	    0.029190	    0.036442	   -0.021135	    0.001979	   -0.019156	    0.054602	    0.055359	    0.109961	   -0.030382	   -0.057160	   -0.087541	    0.042793	    0.032978	    0.075772	    0.008054	    0.004987	    0.013042	    0.004513	    0.004018	    0.008531	   -0.005053	    0.008171	    0.003118	    0.000928	    0.014592	    0.015519	   -0.022882	   -0.022911	   -0.045792
     7.500	0	0	    0	    0.012028	    0.020570	    0.032597	    0.008999	    0.017531	    0.026530	    0.003311	    0.004522	    0.007833	    0.012996	    0.014653	    0.027649	    0.016041	    0.031554	    0.047595	   -0.018591	   -0.023528	   -0.042118	    0.033876	    0.036940	    0.070816	   -0.042762	   -0.056543	   -0.099305	    0.028070	    0.031348	    0.059419	    0.010913	    0.009012	    0.019924	    0.013925	    0.003971	    0.017896	   -0.002129	   -0.001463	   -0.003592	    0.007232	    0.027339	    0.034572	   -0.026091	    0.005439	   -0.020652	    0.048548	    0.056914	    0.105462	   -0.031905	   -0.059040	   -0.090945	    0.040497	    0.032357	    0.072854	    0.007320	    0.004569	    0.011889	    0.003556	    0.004010	    0.007566	   -0.006127	    0.007756	    0.001629	   -0.001281	    0.015365	    0.014084	   -0.020592	   -0.024869	   -0.045460
     7.575	0	0	    0	    0.004330	    0.031294	    0.035624	    0.008103	    0.016960	    0.025063	    0.010893	   -0.004293	    0.006600	    0.013597	    0.013148	    0.026745	    0.018640	    0.027902	    0.046542	   -0.014866	   -0.028211	   -0.043077	    0.042049	    0.031429	    0.073478	   -0.041335	   -0.057179	   -0.098514	    0.023387	    0.032507	    0.055894	    0.010958	    0.007637	    0.018595	    0.013547	    0.003276	    0.016822	   -0.003089	   -0.001495	   -0.004584	    0.005081	    0.027673	    0.032754	   -0.018418	   -0.000981	   -0.019399	    0.047176	    0.059016	    0.106192	   -0.035063	   -0.058197	   -0.093260	    0.038274	    0.031331	    0.069605	    0.006304	    0.004504	    0.010808	    0.002435	    0.003941	    0.006376	   -0.008841	    0.009115	    0.000273	   -0.002339	    0.015125	    0.012786	   -0.014819	   -0.029552	   -0.044371
     7.650	0	0	    0	    0.016153	    0.012440	    0.028594	    0.005855	    0.016935	    0.022791	   -0.001338	    0.004769	    0.003432	    0.010939	    0.013408	    0.024347	    0.018057	    0.028615	    0.046672	   -0.024241	   -0.020619	   -0.044860	    0.021028	    0.046303	    0.067331	   -0.042233	   -0.057796	   -0.100029	    0.020660	    0.031202	    0.051862	    0.007794	    0.008941	    0.016735	    0.012845	    0.002684	    0.015529	   -0.003748	   -0.002028	   -0.005776	    0.004682	    0.026450	    0.031131	   -0.024343	    0.001042	   -0.023301	    0.055168	    0.052242	    0.107409	   -0.037552	   -0.059208	   -0.096760	    0.035465	    0.030952	    0.066417	    0.005809	    0.003367	    0.009176	    0.001829	    0.003381	    0.005210	   -0.009108	    0.007628	   -0.001480	   -0.002502	    0.014093	    0.011591	   -0.020925	   -0.026529	   -0.047454
     7.725	0	0	    0	    0.002823	    0.027373	    0.030197	    0.004180	    0.017911	    0.022091	   -0.000742	    0.005856	    0.005114	    0.010813	    0.012950	    0.023763	    0.017388	    0.025545	    0.042934	   -0.029121	   -0.019748	   -0.048869	    0.019398	    0.054053	    0.073452	   -0.044980	   -0.056262	   -0.101241	    0.020627	    0.028402	    0.049030	    0.007004	    0.007471	    0.014475	    0.012225	    0.002538	    0.014764	   -0.005198	   -0.001978	   -0.007176	    0.004804	    0.023028	    0.027832	   -0.025088	    0.000116	   -0.024972	    0.053264	    0.054797	    0.108061	   -0.038590	   -0.060852	   -0.099441	    0.033753	    0.028909	    0.062662	    0.004057	    0.003287	    0.007344	    0.000424	    0.003361	    0.003785	   -0.010298	    0.006911	   -0.003388	   -0.004482	    0.014526	    0.010044	   -0.024839	   -0.023643	   -0.048482
     7.800	0	0	    0	   -0.001663	    0.034039	    0.032376	    0.005355	    0.017132	    0.022487	    0.003782	    0.000220	    0.004002	    0.010434	    0.011578	    0.022013	    0.014202	    0.029179	    0.043381	   -0.022685	   -0.020850	   -0.043536	    0.026761	    0.049479	    0.076240	   -0.045640	   -0.058140	   -0.103780	    0.018304	    0.027697	    0.046001	    0.006435	    0.007176	    0.013611	    0.010550	    0.003142	    0.013693	   -0.006558	   -0.001963	   -0.008521	    0.001359	    0.025901	    0.027259	   -0.022318	   -0.000207	   -0.022525	    0.057053	    0.047961	    0.105014	   -0.043085	   -0.059685	   -0.102770	    0.030788	    0.028926	    0.059714	    0.002675	    0.003112	    0.005787	   -0.000866	    0.003309	    0.002443	   -0.011811	    0.006376	   -0.005435	   -0.004893	    0.013225	    0.008332	   -0.020634	   -0.025892	   -0.046526
     7.875	0	0	    0	    0.009958	    0.012589	    0.022547	    0.005376	    0.014242	    0.019618	    0.001690	    0.000363	    0.002053	    0.008002	    0.012934	    0.020936	    0.011250	    0.030093	    0.041343	   -0.017585	   -0.033553	   -0.051139	    0.043335	    0.024037	    0.067372	   -0.047708	   -0.055910	   -0.103619	    0.013043	    0.029269	    0.042312	    0.005053	    0.006645	    0.011698	    0.010460	    0.002096	    0.012556	   -0.007840	   -0.002187	   -0.010027	   -0.001566	    0.025975	    0.024409	   -0.022514	   -0.001919	   -0.024433	    0.057525	    0.043633	    0.101159	   -0.044574	   -0.060309	   -0.104883	    0.027892	    0.028478	    0.056370	    0.001266	    0.002836	    0.004102	   -0.001919	    0.002795	    0.000876	   -0.014165	    0.006443	   -0.007722	   -0.005208	    0.011828	    0.006620	   -0.025393	   -0.024127	   -0.049520
     7.950	0	0	    0	    0.002444	    0.021160	    0.023604	   -0.001156	    0.020587	    0.019431	   -0.003097	    0.001447	   -0.001651	    0.006989	    0.011901	    0.018890	    0.012653	    0.026226	    0.038879	   -0.031921	   -0.017458	   -0.049380	    0.013746	    0.054389	    0.068135	   -0.048079	   -0.056985	   -0.105063	    0.009758	    0.029231	    0.038989	    0.002517	    0.007135	    0.009652	    0.008622	    0.002108	    0.010730	   -0.008998	   -0.002597	   -0.011595	   -0.004634	    0.027031	    0.022397	   -0.027778	    0.000559	   -0.027218	    0.050327	    0.050689	    0.101016	   -0.050088	   -0.058886	   -0.108974	    0.023660	    0.028847	    0.052507	   -0.000553	    0.002416	    0.001863	   -0.003647	    0.002764	   -0.000884	   -0.017578	    0.007300	   -0.010278	   -0.008419	    0.012895	    0.004476	   -0.023128	   -0.028225	   -0.051352
     8.025	0	0	    0	   -0.002553	    0.022711	    0.020158	    0.006120	    0.012786	    0.018906	    0.003571	   -0.005952	   -0.002381	    0.007094	    0.009686	    0.016780	    0.007895	    0.027631	    0.035525	   -0.018363	   -0.033762	   -0.052125	    0.045446	    0.019691	    0.065137	   -0.047983	   -0.060176	   -0.108159	    0.012218	    0.025152	    0.037370	    0.004746	    0.005129	    0.009875	    0.010230	    0.001525	    0.011755	   -0.010603	   -0.002785	   -0.013388	   -0.002255	    0.021252	    0.018997	   -0.018637	   -0.007055	   -0.025692	    0.048469	    0.056057	    0.104525	   -0.044039	   -0.064184	   -0.108223	    0.026918	    0.024889	    0.051807	    0.002598	    0.001518	    0.004115	   -0.000959	    0.001892	    0.000934	   -0.015366	    0.004454	   -0.010911	   -0.004005	    0.010373	    0.006368	   -0.023633	   -0.025538	   -0.049171
     8.100	0	0	    0	    0.017504	    0.005006	    0.022510	    0.010678	    0.016363	    0.027041	    0.011913	   -0.003667	    0.008246	    0.012740	    0.010779	    0.023519	    0.019340	    0.024531	    0.043872	   -0.021900	   -0.022345	   -0.044245	    0.042159	    0.036384	    0.078543	   -0.040499	   -0.058635	   -0.099133	    0.028472	    0.029027	    0.057498	    0.011049	    0.007252	    0.018302	    0.013553	    0.002623	    0.016176	   -0.003734	   -0.004159	   -0.007892	    0.002782	    0.027247	    0.030030	   -0.019838	   -0.001355	   -0.021193	    0.047943	    0.061615	    0.109559	   -0.027797	   -0.057415	   -0.085211	    0.041100	    0.028836	    0.069937	    0.006509	    0.002779	    0.009288	    0.003521	    0.002871	    0.006392	   -0.007161	    0.007891	    0.000731	   -0.002271	    0.017196	    0.014925	   -0.018849	   -0.025141	   -0.043990
     8.175	0	0	    0	    0.008716	    0.023798	    0.032514	    0.010390	    0.019774	    0.030164	    0.010481	    0.004412	    0.014893	    0.014363	    0.012429	    0.026792	    0.022362	    0.027874	    0.050235	   -0.019274	   -0.016793	   -0.036067	    0.039558	    0.039433	    0.078990	   -0.042624	   -0.054573	   -0.097198	    0.030897	    0.034759	    0.065656	    0.013760	    0.007832	    0.021592	    0.014804	    0.003457	    0.018260	   -0.001393	   -0.002515	   -0.003908	    0.003626	    0.031721	    0.035347	   -0.015957	   -0.001047	   -0.017004	    0.053234	    0.055907	    0.109141	   -0.026965	   -0.052606	   -0.079572	    0.043479	    0.031966	    0.075445	    0.007795	    0.003728	    0.011524	    0.005401	    0.003419	    0.008820	   -0.003964	    0.009070	    0.005106	    0.001621	    0.015615	    0.017236	   -0.017618	   -0.024876	   -0.042493
     8.250	0	0	    0	    0.019663	    0.014821	    0.034484	    0.012636	    0.019628	    0.032264	    0.008880	    0.000757	    0.009637	    0.015721	    0.012585	    0.028306	    0.025706	    0.024392	    0.050098	   -0.015583	   -0.021370	   -0.036953	    0.045273	    0.034463	    0.079736	   -0.039448	   -0.055841	   -0.095289	    0.035343	    0.034004	    0.069346	    0.015154	    0.006838	    0.021991	    0.016336	    0.002382	    0.018718	    0.000516	   -0.002416	   -0.001900	    0.009419	    0.026557	    0.035976	   -0.013085	   -0.004601	   -0.017686	    0.058617	    0.051520	    0.110136	   -0.022182	   -0.054757	   -0.076939	    0.045824	    0.032378	    0.078202	    0.008582	    0.003764	    0.012347	    0.005933	    0.004091	    0.010024	   -0.001459	    0.008296	    0.006836	    0.001411	    0.017004	    0.018415	   -0.019164	   -0.022446	   -0.041610
     8.325	0	0	    0	    0.026053	    0.012657	    0.038710	    0.013367	    0.017771	    0.031139	    0.006967	    0.006879	    0.013847	    0.015528	    0.013086	    0.028615	    0.027472	    0.023670	    0.051141	   -0.012406	   -0.025328	   -0.037734	    0.047071	    0.032153	    0.079224	   -0.034739	   -0.060032	   -0.094771	    0.034571	    0.031650	    0.066221	    0.014589	    0.007063	    0.021652	    0.016027	    0.002969	    0.018996	    0.000946	   -0.002375	   -0.001429	    0.006139	    0.028612	    0.034752	   -0.017020	   -0.001633	   -0.018653	    0.053954	    0.056953	    0.110907	   -0.025311	   -0.054953	   -0.080264	    0.044159	    0.031732	    0.075890	    0.008396	    0.004041	    0.012437	    0.006081	    0.003899	    0.009980	   -0.001697	    0.007330	    0.005633	    0.002215	    0.014371	    0.016587	   -0.018048	   -0.027215	   -0.045263
     8.400	0	0	    0	    0.006200	    0.021170	    0.027370	    0.013820	    0.016841	    0.030662	    0.007815	    0.005194	    0.013009	    0.015642	    0.013806	    0.029448	    0.024710	    0.025271	    0.049981	   -0.013839	   -0.024617	   -0.038456	    0.036929	    0.035306	    0.072235	   -0.037401	   -0.058827	   -0.096228	    0.035522	    0.031030	    0.066552	    0.013956	    0.007448	    0.021404	    0.015785	    0.003369	    0.019154	    0.001037	   -0.002727	   -0.001690	    0.009432	    0.025085	    0.034518	   -0.017133	   -0.000797	   -0.017930	    0.047872	    0.057850	    0.105722	   -0.024018	   -0.055818	   -0.079837	    0.045218	    0.030918	    0.076136	    0.007945	    0.004234	    0.012179	    0.006225	    0.004005	    0.010230	   -0.001812	    0.007357	    0.005545	    0.003533	    0.013344	    0.016877	   -0.022038	   -0.021775	   -0.043813
     8.475	0	0	    0	   -0.004502	    0.041483	    0.036981	    0.011267	    0.019987	    0.031254	    0.012342	   -0.001401	    0.010942	    0.015469	    0.013534	    0.029003	    0.019086	    0.030596	    0.049682	   -0.015965	   -0.022704	   -0.038669	    0.048196	    0.031702	    0.079898	   -0.039866	   -0.055322	   -0.095188	    0.033881	    0.031974	    0.065856	    0.013947	    0.006619	    0.020566	    0.015559	    0.003206	    0.018765	    0.000674	   -0.002461	   -0.001786	    0.006586	    0.027407	    0.033993	   -0.016819	    0.000027	   -0.016792	    0.055326	    0.056403	    0.111729	   -0.026308	   -0.055129	   -0.081437	    0.043382	    0.030900	    0.074282	    0.007630	    0.004273	    0.011903	    0.005817	    0.003803	    0.009620	   -0.002769	    0.007275	    0.004506	    0.001878	    0.015449	    0.017328	   -0.023390	   -0.021564	   -0.044955
     8.550	0	0	    0	    0.007303	    0.029492	    0.036794	    0.013126	    0.017494	    0.030620	    0.012237	   -0.001569	    0.010668	    0.016934	    0.013053	    0.029987	    0.022530	    0.028041	    0.050571	   -0.015965	   -0.022704	   -0.038669	    0.043091	    0.035088	    0.078179	   -0.040288	   -0.055563	   -0.095851	    0.032223	    0.030156	    0.062379	    0.012278	    0.007024	    0.019302	    0.015348	    0.003154	    0.018502	    0.000543	   -0.002889	   -0.002346	    0.008500	    0.024322	    0.032822	   -0.016198	   -0.001678	   -0.017876	    0.053315	    0.057443	    0.110758	   -0.027983	   -0.056418	   -0.084401	    0.041961	    0.029557	    0.071518	    0.007385	    0.003721	    0.011106	    0.005080	    0.003743	    0.008823	   -0.002877	    0.005609	    0.002733	    0.002724	    0.012388	    0.015112	   -0.023496	   -0.018662	   -0.042158
     8.625	0	0	    0	    0.018786	    0.014988	    0.033774	    0.009516	    0.018877	    0.028393	    0.007808	    0.002378	    0.010186	    0.015964	    0.014022	    0.029986	    0.024021	    0.025064	    0.049084	   -0.019861	   -0.023162	   -0.043024	    0.036487	    0.037476	    0.073963	   -0.040465	   -0.056904	   -0.097368	    0.027694	    0.031588	    0.059282	    0.011915	    0.006166	    0.018081	    0.015099	    0.002929	    0.018028	    0.000054	   -0.003211	   -0.003157	    0.007377	    0.022738	    0.030115	   -0.021029	    0.001077	   -0.019952	    0.051949	    0.056436	    0.108384	   -0.030996	   -0.056557	   -0.087554	    0.039661	    0.028790	    0.068451	    0.006083	    0.004142	    0.010225	    0.004242	    0.003385	    0.007627	   -0.003978	    0.004614	    0.000636	    0.000808	    0.013287	    0.014095	   -0.022314	   -0.023800	   -0.046113
     8.700	0	0	    0	    0.010568	    0.012810	    0.023378	    0.009589	    0.017357	    0.026946	    0.000849	    0.006070	    0.006920	    0.015982	    0.010871	    0.026853	    0.019939	    0.026214	    0.046154	   -0.019948	   -0.022983	   -0.042932	    0.032384	    0.035962	    0.068347	   -0.040867	   -0.059115	   -0.099982	    0.025113	    0.030628	    0.055740	    0.009941	    0.005868	    0.015808	    0.014231	    0.002580	    0.016811	   -0.001051	   -0.003646	   -0.004697	    0.004930	    0.023407	    0.028337	   -0.021697	   -0.001899	   -0.023596	    0.058324	    0.045701	    0.104025	   -0.034403	   -0.056883	   -0.091285	    0.036868	    0.027820	    0.064689	    0.005301	    0.003290	    0.008591	    0.003419	    0.002914	    0.006333	   -0.006706	    0.004865	   -0.001841	   -0.000502	    0.012224	    0.011722	   -0.023211	   -0.026740	   -0.049950
     8.775	0	0	    0	    0.000206	    0.020178	    0.020384	    0.009248	    0.015577	    0.024825	    0.002560	    0.002378	    0.004938	    0.013319	    0.013000	    0.026319	    0.016029	    0.027977	    0.044007	   -0.022453	   -0.023988	   -0.046440	    0.030827	    0.038821	    0.069648	   -0.046649	   -0.053565	   -0.100214	    0.023548	    0.028577	    0.052125	    0.009480	    0.005012	    0.014491	    0.012902	    0.003068	    0.015971	   -0.002908	   -0.003014	   -0.005922	    0.002082	    0.024819	    0.026901	   -0.019312	   -0.001062	   -0.020374	    0.046458	    0.057526	    0.103984	   -0.035220	   -0.058821	   -0.094041	    0.034680	    0.027119	    0.061799	    0.003934	    0.003373	    0.007307	    0.002110	    0.002945	    0.005055	   -0.007373	    0.003472	   -0.003901	   -0.001561	    0.012594	    0.011033	   -0.029412	   -0.017554	   -0.046965
     8.850	0	0	    0	    0.020387	    0.008053	    0.028440	    0.004921	    0.020399	    0.025320	   -0.000126	    0.005402	    0.005275	    0.013706	    0.012513	    0.026219	    0.021729	    0.020768	    0.042497	   -0.027781	   -0.020286	   -0.048066	    0.026974	    0.046464	    0.073438	   -0.042394	   -0.060124	   -0.102518	    0.021862	    0.028891	    0.050753	    0.007471	    0.006201	    0.013672	    0.013771	    0.001673	    0.015444	   -0.003004	   -0.003891	   -0.006895	    0.004279	    0.020221	    0.024500	   -0.024451	   -0.000423	   -0.024874	    0.057952	    0.052448	    0.110400	   -0.037798	   -0.059048	   -0.096846	    0.032966	    0.026376	    0.059342	    0.003890	    0.002528	    0.006418	    0.001706	    0.002357	    0.004063	   -0.008955	    0.003601	   -0.005354	   -0.001865	    0.010955	    0.009090	   -0.026968	   -0.023545	   -0.050514
     8.925	0	0	    0	    0.004890	    0.017099	    0.021988	    0.008861	    0.013029	    0.021890	    0.004418	   -0.003281	    0.001137	    0.011282	    0.012598	    0.023880	    0.014888	    0.026539	    0.041426	   -0.018876	   -0.034725	   -0.053601	    0.039824	    0.028774	    0.068598	   -0.044305	   -0.059825	   -0.104130	    0.018367	    0.028076	    0.046443	    0.007345	    0.004612	    0.011957	    0.011597	    0.002503	    0.014099	   -0.004725	   -0.003765	   -0.008490	   -0.000311	    0.021994	    0.021683	   -0.022204	   -0.004413	   -0.026617	    0.050464	    0.055025	    0.105489	   -0.040431	   -0.059976	   -0.100407	    0.030325	    0.026029	    0.056355	    0.002056	    0.002467	    0.004523	    0.000225	    0.002133	    0.002358	   -0.010872	    0.002442	   -0.008430	   -0.003976	    0.011210	    0.007233	   -0.030561	   -0.022208	   -0.052769
     9.000	0	0	    0	    0.010280	    0.016008	    0.026289	    0.006749	    0.015777	    0.022525	    0.004512	   -0.004690	   -0.000178	    0.011507	    0.011335	    0.022842	    0.016020	    0.023727	    0.039746	   -0.016935	   -0.036147	   -0.053082	    0.041396	    0.025467	    0.066862	   -0.044939	   -0.060184	   -0.105124	    0.017518	    0.026441	    0.043959	    0.006245	    0.003760	    0.010005	    0.011527	    0.001519	    0.013046	   -0.005387	   -0.004430	   -0.009817	   -0.002428	    0.021740	    0.019313	   -0.019073	   -0.007098	   -0.026171	    0.059011	    0.045627	    0.104638	   -0.043474	   -0.060146	   -0.103621	    0.027753	    0.025427	    0.053180	    0.001466	    0.001493	    0.002959	   -0.000927	    0.001950	    0.001023	   -0.013929	    0.003393	   -0.010536	   -0.005186	    0.011155	    0.005968	   -0.019624	   -0.027756	   -0.047381
     9.075	0	0	    0	    0.012157	    0.005999	    0.018156	    0.002569	    0.017015	    0.019584	    0.005558	   -0.004767	    0.000791	    0.010160	    0.011431	    0.021591	    0.013277	    0.023641	    0.036919	   -0.026117	   -0.028718	   -0.054835	    0.030723	    0.034150	    0.064873	   -0.045523	   -0.060784	   -0.106307	    0.010671	    0.028520	    0.039191	    0.004404	    0.005049	    0.009454	    0.009540	    0.002272	    0.011812	   -0.006470	   -0.004865	   -0.011335	   -0.004856	    0.022735	    0.017879	   -0.024029	   -0.003807	   -0.027836	    0.039166	    0.062227	    0.101393	   -0.047119	   -0.059177	   -0.106296	    0.025258	    0.024923	    0.050182	   -0.000562	    0.001810	    0.001248	   -0.002830	    0.002017	   -0.000813	   -0.016083	    0.002900	   -0.013183	   -0.007852	    0.011155	    0.003303	   -0.030728	   -0.023545	   -0.054273
     9.150	0	0	    0	    0.006782	    0.019473	    0.026255	    0.006100	    0.013708	    0.019808	    0.006650	   -0.007052	   -0.000401	    0.009446	    0.010616	    0.020062	    0.010843	    0.025303	    0.036146	   -0.019905	   -0.034183	   -0.054088	    0.040046	    0.025356	    0.065401	   -0.049600	   -0.059469	   -0.109068	    0.011231	    0.026399	    0.037630	    0.004911	    0.003648	    0.008559	    0.010162	    0.001600	    0.011762	   -0.008556	   -0.004377	   -0.012932	   -0.006221	    0.021197	    0.014976	   -0.016134	   -0.009208	   -0.025342	    0.063906	    0.045418	    0.109324	   -0.046195	   -0.062903	   -0.109098	    0.023717	    0.023679	    0.047396	    0.001514	    0.000504	    0.002018	   -0.000966	    0.000720	   -0.000245	   -0.017181	    0.002173	   -0.015008	   -0.006941	    0.011257	    0.004316	   -0.021388	   -0.024977	   -0.046365
     9.225	0	0	    0	    0.010107	    0.024948	    0.035055	    0.014334	    0.015082	    0.029416	    0.011406	   -0.001446	    0.009960	    0.015110	    0.010111	    0.025221	    0.019002	    0.024205	    0.043207	   -0.011434	   -0.033018	   -0.044451	    0.046624	    0.030751	    0.077374	   -0.040597	   -0.058690	   -0.099288	    0.030413	    0.026873	    0.057286	    0.012677	    0.003518	    0.016195	    0.014181	    0.002146	    0.016327	   -0.003104	   -0.006183	   -0.009287	    0.000297	    0.022861	    0.023158	   -0.017184	   -0.004304	   -0.021488	    0.058737	    0.054796	    0.113532	   -0.028387	   -0.057194	   -0.085581	    0.039563	    0.025077	    0.064640	    0.005752	    0.002010	    0.007763	    0.003805	    0.001843	    0.005648	   -0.007310	    0.003189	   -0.004120	    0.000804	    0.011643	    0.012447	   -0.021992	   -0.024307	   -0.046299
     9.300	0	0	    0	    0.010615	    0.019453	    0.030068	    0.015467	    0.016243	    0.031709	    0.013937	   -0.002113	    0.011824	    0.015230	    0.013454	    0.028685	    0.022600	    0.023965	    0.046564	   -0.015361	   -0.025219	   -0.040581	    0.037886	    0.042649	    0.080535	   -0.039370	   -0.057895	   -0.097266	    0.033059	    0.032435	    0.065494	    0.013886	    0.005422	    0.019308	    0.016332	    0.001779	    0.018111	   -0.000384	   -0.004478	   -0.004863	    0.004710	    0.023744	    0.028453	   -0.016928	   -0.003624	   -0.020551	    0.047924	    0.062522	    0.110446	   -0.023741	   -0.054807	   -0.078548	    0.043250	    0.028443	    0.071693	    0.007682	    0.002322	    0.010004	    0.005916	    0.002267	    0.008183	   -0.003223	    0.004026	    0.000803	    0.001194	    0.014304	    0.015499	   -0.022599	   -0.022263	   -0.044862
     9.375	0	0	    0	    0.019650	    0.017784	    0.037435	    0.017483	    0.017432	    0.034915	    0.014974	   -0.001484	    0.013490	    0.018455	    0.012379	    0.030834	    0.024721	    0.024546	    0.049267	   -0.006662	   -0.032434	   -0.039096	    0.045266	    0.038343	    0.083609	   -0.038054	   -0.056027	   -0.094081	    0.038037	    0.032389	    0.070426	    0.016590	    0.005081	    0.021671	    0.016812	    0.002829	    0.019642	    0.001685	   -0.003816	   -0.002131	    0.006552	    0.023520	    0.030072	   -0.015172	   -0.002311	   -0.017483	    0.051229	    0.057592	    0.108821	   -0.020912	   -0.053856	   -0.074768	    0.045893	    0.029832	    0.075725	    0.009093	    0.002668	    0.011761	    0.007430	    0.002541	    0.009971	   -0.000470	    0.004156	    0.003685	    0.003783	    0.013299	    0.017081	   -0.019666	   -0.023294	   -0.042960
     9.450	0	0	    0	    0.016112	    0.018331	    0.034442	    0.017172	    0.016180	    0.033352	    0.018420	   -0.004490	    0.013930	    0.018245	    0.013656	    0.031901	    0.021844	    0.027830	    0.049674	   -0.017303	   -0.023903	   -0.041206	    0.040658	    0.035639	    0.076297	   -0.039383	   -0.056127	   -0.095510	    0.035945	    0.032450	    0.068396	    0.014986	    0.005243	    0.020229	    0.017335	    0.002464	    0.019799	    0.002429	   -0.004051	   -0.001622	    0.006330	    0.023858	    0.030188	   -0.014560	   -0.006239	   -0.020799	    0.049299	    0.062647	    0.111946	   -0.023265	   -0.054439	   -0.077704	    0.043922	    0.029199	    0.073122	    0.008382	    0.002734	    0.011116	    0.006971	    0.002682	    0.009652	   -0.002063	    0.004491	    0.002428	    0.004038	    0.011364	    0.015402	   -0.025359	   -0.020113	   -0.045472
     9.525	0	0	    0	    0.029030	    0.006946	    0.035976	    0.014509	    0.019819	    0.034327	    0.010379	    0.004241	    0.014619	    0.020641	    0.012130	    0.032771	    0.026069	    0.022828	    0.048898	   -0.020518	   -0.018194	   -0.038712	    0.041281	    0.037407	    0.078688	   -0.034898	   -0.060804	   -0.095703	    0.039049	    0.029216	    0.068265	    0.015042	    0.005395	    0.020437	    0.018431	    0.002289	    0.020721	    0.002283	   -0.004070	   -0.001787	    0.007009	    0.021897	    0.028906	   -0.018580	    0.000955	   -0.017625	    0.057925	    0.052007	    0.109931	   -0.021544	   -0.056554	   -0.078099	    0.044725	    0.028522	    0.073247	    0.008556	    0.002894	    0.011449	    0.007386	    0.002528	    0.009914	   -0.001391	    0.003338	    0.001948	    0.001934	    0.012959	    0.014893	   -0.024527	   -0.018965	   -0.043492
     9.600	0	0	    0	    0.017838	    0.014224	    0.032062	    0.012385	    0.021172	    0.033556	    0.009146	    0.004804	    0.013950	    0.018879	    0.013242	    0.032121	    0.024506	    0.024138	    0.048644	   -0.024663	   -0.014788	   -0.039451	    0.022408	    0.057093	    0.079501	   -0.040385	   -0.054859	   -0.095245	    0.038317	    0.028903	    0.067220	    0.014459	    0.005192	    0.019652	    0.017769	    0.002396	    0.020166	    0.002227	   -0.004103	   -0.001876	    0.006380	    0.022263	    0.028643	   -0.016326	   -0.003141	   -0.019467	    0.065384	    0.046995	    0.112379	   -0.022587	   -0.055830	   -0.078417	    0.043423	    0.028479	    0.071902	    0.008715	    0.002395	    0.011110	    0.007616	    0.001962	    0.009578	   -0.002081	    0.002990	    0.000909	    0.004251	    0.010475	    0.014726	   -0.020397	   -0.024899	   -0.045297
     9.675	0	0	    0	    0.018391	    0.012543	    0.030934	    0.013720	    0.018442	    0.032162	    0.006574	    0.004562	    0.011136	    0.020771	    0.010973	    0.031744	    0.022560	    0.023720	    0.046280	   -0.020944	   -0.021792	   -0.042737	    0.037538	    0.037314	    0.074852	   -0.040124	   -0.056763	   -0.096887	    0.035649	    0.029979	    0.065629	    0.013065	    0.004880	    0.017945	    0.017526	    0.002595	    0.020121	    0.001880	   -0.004289	   -0.002408	    0.006656	    0.020124	    0.026780	   -0.019299	   -0.001004	   -0.020302	    0.050675	    0.062095	    0.112770	   -0.025325	   -0.056155	   -0.081480	    0.041645	    0.027767	    0.069412	    0.007517	    0.002775	    0.010293	    0.006462	    0.002320	    0.008782	   -0.003636	    0.003126	   -0.000510	    0.002066	    0.011496	    0.013562	   -0.022366	   -0.021261	   -0.043628
     9.750	0	0	    0	    0.003081	    0.034817	    0.037899	    0.012098	    0.020783	    0.032881	    0.007968	    0.001894	    0.009861	    0.017017	    0.013446	    0.030463	    0.019932	    0.023815	    0.043747	   -0.027376	   -0.021379	   -0.048755	    0.027349	    0.047925	    0.075274	   -0.039789	   -0.057378	   -0.097167	    0.033567	    0.029679	    0.063247	    0.011865	    0.004709	    0.016574	    0.016906	    0.002311	    0.019218	    0.001002	   -0.004550	   -0.003548	    0.004018	    0.021419	    0.025437	   -0.019762	   -0.001166	   -0.020928	    0.053981	    0.057395	    0.111376	   -0.027680	   -0.056684	   -0.084364	    0.039613	    0.026716	    0.066329	    0.007143	    0.002079	    0.009223	    0.005784	    0.001878	    0.007662	   -0.004402	    0.001829	   -0.002573	    0.000835	    0.012050	    0.012885	   -0.023439	   -0.023397	   -0.046836
     9.825	0	0	    0	    0.020401	    0.010952	    0.031353	    0.010639	    0.020239	    0.030878	    0.006052	    0.005192	    0.011243	    0.019684	    0.010459	    0.030142	    0.024985	    0.022060	    0.047045	   -0.027394	   -0.016691	   -0.044085	    0.019558	    0.059566	    0.079124	   -0.036603	   -0.060623	   -0.097226	    0.027583	    0.032000	    0.059583	    0.010758	    0.004631	    0.015388	    0.015734	    0.002732	    0.018466	    0.000239	   -0.004569	   -0.004329	    0.001297	    0.022906	    0.024203	   -0.023766	    0.000374	   -0.023392	    0.064165	    0.050376	    0.114541	   -0.030430	   -0.057060	   -0.087490	    0.037309	    0.025948	    0.063257	    0.006074	    0.001983	    0.008057	    0.004718	    0.001848	    0.006565	   -0.007274	    0.003103	   -0.004171	   -0.000875	    0.011965	    0.011090	   -0.026140	   -0.022414	   -0.048554
     9.900	0	0	    0	    0.017108	    0.011257	    0.028365	    0.013338	    0.015606	    0.028944	    0.005471	    0.003735	    0.009206	    0.016639	    0.013163	    0.029802	    0.020361	    0.024619	    0.044981	   -0.021871	   -0.024758	   -0.046628	    0.044806	    0.037172	    0.081978	   -0.040433	   -0.057530	   -0.097963	    0.028859	    0.027262	    0.056121	    0.010723	    0.003349	    0.014072	    0.016484	    0.001677	    0.018162	   -0.000430	   -0.005320	   -0.005750	    0.004113	    0.019485	    0.023599	   -0.019636	   -0.001940	   -0.021575	    0.059542	    0.056725	    0.116267	   -0.032446	   -0.057856	   -0.090302	    0.035854	    0.024663	    0.060516	    0.005267	    0.001713	    0.006980	    0.004059	    0.001405	    0.005464	   -0.007855	    0.001759	   -0.006096	   -0.002225	    0.012378	    0.010153	   -0.022926	   -0.022563	   -0.045489
