 [File Information]      		 [Data Line]	36
Measured Date	2024/05/27 101056
ID		Version	11.0
Name	oceane_7	[HeaderType]	11.0/11.0
Comment	
[Measurement Info.]
Holder Location	       0
Block Design	Off     
Pre.Rest Time	       0
Task Time	       0
Pos.Rest Time	       0
Loop	       0
Averaging	       1
Total Points	     820
[.INF File]
Filename	Cognitive1.INF
[Condition-1]
HV Switching	OFF
 R1 ,R2 ,R3 ,R4 ,R5 ,R6 ,R7 ,R8 
 120.00, 70.00,120.00,100.00, 90.00, 70.00,120.00,120.00
 Gain(X1,X4,X16,X64)
 R1 ,R2 ,R3 ,R4 ,R5 ,R6 ,R7 ,R8 
 1,1,1,1,1,1,1,1
[Analysis Condition]
Smoothed Type	None            
Smoothed Points	       0
Smoothed Loop	       0
Baseline Method	None            
Baseline location	
[Text Info.]
Output Mode	Continious      	Task No.		Data Type	Hb      
Time Range	    0.00	   61.43	Averaing	1
(1,3)(5,3)(5,7)(2,7)(2,4)(6,4)(6,8)(1,1)(3,3)(5,5)(7,7)(2,2)(4,4)(6,6)(8,8)(3,1)(3,5)(7,5)(7,2)(4,2)(4,6)(8,6)
         	     	     	     	    ch- 1	    ch- 1	    ch- 1	    ch- 2	    ch- 2	    ch- 2	    ch- 3	    ch- 3	    ch- 3	    ch- 4	    ch- 4	    ch- 4	    ch- 5	    ch- 5	    ch- 5	    ch- 6	    ch- 6	    ch- 6	    ch- 7	    ch- 7	    ch- 7	    ch- 8	    ch- 8	    ch- 8	    ch- 9	    ch- 9	    ch- 9	    ch-10	    ch-10	    ch-10	    ch-11	    ch-11	    ch-11	    ch-12	    ch-12	    ch-12	    ch-13	    ch-13	    ch-13	    ch-14	    ch-14	    ch-14	    ch-15	    ch-15	    ch-15	    ch-16	    ch-16	    ch-16	    ch-17	    ch-17	    ch-17	    ch-18	    ch-18	    ch-18	    ch-19	    ch-19	    ch-19	    ch-20	    ch-20	    ch-20	    ch-21	    ch-21	    ch-21	    ch-22	    ch-22	    ch-22
Time(sec)	Task	Mark	Count	    oxyHb   	  deoxyHb	  totalHb	    oxyHb   	  deoxyHb	  totalHb	    oxyHb   	  deoxyHb	  totalHb	    oxyHb   	  deoxyHb	  totalHb	    oxyHb   	  deoxyHb	  totalHb	    oxyHb   	  deoxyHb	  totalHb	    oxyHb   	  deoxyHb	  totalHb	    oxyHb   	  deoxyHb	  totalHb	    oxyHb   	  deoxyHb	  totalHb	    oxyHb   	  deoxyHb	  totalHb	    oxyHb   	  deoxyHb	  totalHb	    oxyHb   	  deoxyHb	  totalHb	    oxyHb   	  deoxyHb	  totalHb	    oxyHb   	  deoxyHb	  totalHb	    oxyHb   	  deoxyHb	  totalHb	    oxyHb   	  deoxyHb	  totalHb	    oxyHb   	  deoxyHb	  totalHb	    oxyHb   	  deoxyHb	  totalHb	    oxyHb   	  deoxyHb	  totalHb	    oxyHb   	  deoxyHb	  totalHb	    oxyHb   	  deoxyHb	  totalHb	    oxyHb   	  deoxyHb	  totalHb
     0.000	0	0Z	    0	    0.000000	    0.000000	    0.000000	    0.000000	    0.000000	    0.000000	    0.000000	    0.000000	    0.000000	    0.000000	    0.000000	    0.000000	    0.000000	    0.000000	    0.000000	    0.000000	    0.000000	    0.000000	    0.000000	    0.000000	    0.000000	    0.000000	    0.000000	    0.000000	    0.000000	    0.000000	    0.000000	    0.000000	    0.000000	    0.000000	    0.000000	    0.000000	    0.000000	    0.000000	    0.000000	    0.000000	    0.000000	    0.000000	    0.000000	    0.000000	    0.000000	    0.000000	    0.000000	    0.000000	    0.000000	    0.000000	    0.000000	    0.000000	    0.000000	    0.000000	    0.000000	    0.000000	    0.000000	    0.000000	    0.000000	    0.000000	    0.000000	    0.000000	    0.000000	    0.000000	    0.000000	    0.000000	    0.000000	    0.000000	    0.000000	    0.000000
     0.075	0	0	    0	   -0.003996	    0.005870	    0.001873	    0.007830	   -0.002399	    0.005431	    0.007497	   -0.004633	    0.002864	    0.001811	    0.000264	    0.002076	    0.004424	   -0.000953	    0.003471	    0.013159	   -0.007469	    0.005690	    0.013704	   -0.021855	   -0.008151	   -0.001522	    0.004464	    0.002942	    0.014074	   -0.002591	    0.011484	    0.007402	   -0.000540	    0.006863	    0.003247	   -0.000046	    0.003201	    0.003588	   -0.001411	    0.002177	    0.010348	   -0.003238	    0.007110	    0.006869	   -0.002061	    0.004808	   -0.009666	    0.005739	   -0.003928	    0.017369	    0.001702	    0.019071	    0.011065	    0.000755	    0.011821	    0.005357	    0.001091	    0.006449	    0.005548	    0.001272	    0.006820	    0.010385	   -0.000260	    0.010125	    0.010023	    0.000629	    0.010652	   -0.000839	    0.002562	    0.001723
     0.150	0	0	    0	    0.017441	   -0.009989	    0.007452	    0.004223	    0.004049	    0.008271	    0.000987	    0.005807	    0.006794	    0.006750	    0.000655	    0.007405	    0.009902	    0.000132	    0.010034	    0.006733	    0.001111	    0.007843	   -0.008550	   -0.001578	   -0.010128	    0.008427	   -0.000794	    0.007634	    0.020236	    0.002116	    0.022353	    0.008721	    0.001766	    0.010488	    0.004936	    0.000673	    0.005609	    0.007932	   -0.000024	    0.007908	    0.014633	   -0.001232	    0.013401	    0.003254	    0.003071	    0.006325	   -0.006917	    0.005134	   -0.001784	    0.023676	    0.005775	    0.029451	    0.016057	    0.004656	    0.020713	    0.007073	    0.002324	    0.009397	    0.007650	    0.002586	    0.010236	    0.014306	    0.002394	    0.016700	    0.011939	    0.001447	    0.013387	   -0.001803	    0.007421	    0.005619
     0.225	0	0	    0	   -0.000017	    0.005123	    0.005105	    0.008300	    0.002097	    0.010396	    0.002713	    0.007220	    0.009933	    0.006632	    0.003080	    0.009712	    0.010507	    0.001606	    0.012113	    0.009287	    0.005157	    0.014444	    0.000213	    0.000477	    0.000690	    0.003207	    0.005534	    0.008741	    0.024675	    0.000860	    0.025535	    0.009777	    0.001891	    0.011667	    0.006164	    0.000554	    0.006718	    0.008946	    0.000780	    0.009727	    0.015416	    0.000719	    0.016135	    0.003456	    0.004762	    0.008218	   -0.002619	    0.002263	   -0.000355	    0.025296	    0.007115	    0.032412	    0.018094	    0.005008	    0.023103	    0.007578	    0.002766	    0.010345	    0.008860	    0.002883	    0.011742	    0.015930	    0.002646	    0.018576	    0.012970	    0.002624	    0.015594	    0.004534	    0.000446	    0.004980
     0.300	0	0	    0	    0.012810	   -0.011065	    0.001745	    0.004792	    0.004796	    0.009588	    0.001758	    0.006918	    0.008676	    0.006619	    0.003303	    0.009923	    0.011777	   -0.000027	    0.011750	    0.003342	    0.007110	    0.010453	   -0.005384	    0.005755	    0.000371	    0.007429	   -0.000250	    0.007179	    0.020559	    0.004571	    0.025130	    0.008351	    0.001912	    0.010263	    0.006077	    0.000906	    0.006983	    0.008879	    0.001155	    0.010034	    0.013677	    0.002741	    0.016419	    0.003456	    0.004762	    0.008218	   -0.010343	    0.010934	    0.000591	    0.023000	    0.006323	    0.029323	    0.015957	    0.005424	    0.021381	    0.007074	    0.002695	    0.009769	    0.008366	    0.002956	    0.011322	    0.013716	    0.003938	    0.017654	    0.011072	    0.002885	    0.013957	   -0.006937	    0.009798	    0.002861
     0.375	0	0	    0	    0.012002	   -0.005750	    0.006252	    0.008535	    0.001491	    0.010026	    0.003814	    0.001149	    0.004963	    0.007465	    0.001277	    0.008742	    0.013413	   -0.001796	    0.011617	    0.011017	    0.001214	    0.012231	    0.011240	   -0.010578	    0.000662	    0.007770	    0.000942	    0.008712	    0.021784	    0.002477	    0.024261	    0.009256	    0.000872	    0.010129	    0.006391	    0.000683	    0.007074	    0.008830	    0.000493	    0.009323	    0.016139	   -0.000367	    0.015771	    0.001435	    0.008619	    0.010054	   -0.002533	    0.003443	    0.000910	    0.023659	    0.005580	    0.029238	    0.016332	    0.004556	    0.020888	    0.007614	    0.001821	    0.009435	    0.008874	    0.002647	    0.011521	    0.014364	    0.002743	    0.017107	    0.013680	    0.001148	    0.014829	    0.007883	   -0.002745	    0.005138
     0.450	0	0	    0	    0.023285	   -0.019157	    0.004128	    0.007530	    0.001082	    0.008611	    0.004987	   -0.000918	    0.004068	    0.008019	    0.001432	    0.009451	    0.015203	   -0.002681	    0.012523	    0.015544	   -0.006840	    0.008704	    0.003955	   -0.010684	   -0.006729	    0.013195	   -0.003045	    0.010150	    0.019931	    0.004237	    0.024169	    0.009482	    0.000324	    0.009807	    0.006457	    0.000677	    0.007134	    0.009030	    0.000570	    0.009600	    0.014588	    0.003244	    0.017832	    0.008942	   -0.000049	    0.008893	   -0.003387	    0.000813	   -0.002574	    0.021199	    0.008531	    0.029730	    0.015253	    0.005958	    0.021211	    0.006244	    0.002073	    0.008317	    0.008119	    0.002544	    0.010663	    0.012977	    0.004175	    0.017153	    0.011883	    0.003535	    0.015418	    0.004762	    0.000343	    0.005105
     0.525	0	0	    0	    0.014766	   -0.004885	    0.009881	    0.005117	    0.002430	    0.007547	    0.006816	   -0.001713	    0.005103	    0.007916	    0.001988	    0.009904	    0.012791	    0.001480	    0.014271	    0.011020	   -0.001814	    0.009206	    0.001319	   -0.002435	   -0.001116	    0.010510	   -0.001060	    0.009450	    0.017010	    0.006359	    0.023369	    0.006545	    0.002734	    0.009279	    0.006134	    0.000919	    0.007053	    0.007748	    0.001478	    0.009226	    0.014953	    0.007793	    0.022746	    0.004292	    0.004719	    0.009011	   -0.006188	    0.006624	    0.000435	    0.023221	    0.009709	    0.032930	    0.012194	    0.006422	    0.018616	    0.003812	    0.001343	    0.005155	    0.006557	    0.002486	    0.009043	    0.008755	    0.005723	    0.014479	    0.011528	    0.007077	    0.018605	    0.002181	    0.003633	    0.005814
     0.600	0	0	    0	    0.012107	   -0.003270	    0.008836	    0.001588	    0.002728	    0.004315	   -0.000326	    0.004527	    0.004201	    0.007073	    0.001866	    0.008939	    0.014505	    0.001008	    0.015514	    0.001337	    0.002461	    0.003798	    0.000804	   -0.004338	   -0.003535	    0.006508	    0.004725	    0.011232	    0.019633	    0.006190	    0.025823	    0.007812	    0.002583	    0.010395	    0.004499	    0.001159	    0.005659	    0.007445	    0.001790	    0.009234	    0.020764	    0.010216	    0.030980	    0.005428	    0.004329	    0.009757	   -0.006287	    0.005664	   -0.000623	    0.025507	    0.012653	    0.038160	    0.009863	    0.005918	    0.015780	    0.000472	   -0.000157	    0.000314	    0.004272	    0.001767	    0.006039	    0.004228	    0.003624	    0.007852	    0.013485	    0.006565	    0.020050	   -0.000483	    0.009950	    0.009467
     0.675	0	0	    0	    0.017990	   -0.011547	    0.006443	    0.001586	    0.000625	    0.002211	   -0.004172	    0.004042	   -0.000130	    0.005474	    0.001513	    0.006987	    0.015753	    0.001670	    0.017424	   -0.000015	   -0.000593	   -0.000608	   -0.006907	   -0.002789	   -0.009696	    0.006462	    0.001216	    0.007678	    0.021309	    0.007786	    0.029095	    0.007784	    0.004056	    0.011840	    0.001356	   -0.000987	    0.000369	    0.006607	    0.001774	    0.008380	    0.025171	    0.012428	    0.037599	    0.005918	    0.010402	    0.016320	   -0.018055	    0.011715	   -0.006340	    0.025412	    0.014886	    0.040298	    0.009499	    0.004115	    0.013613	   -0.004744	   -0.003259	   -0.008003	    0.000171	    0.000135	    0.000306	    0.001848	    0.000747	    0.002595	    0.012076	    0.010444	    0.022521	    0.006696	    0.010957	    0.017652
     0.750	0	0	    0	    0.003189	    0.001929	    0.005118	   -0.002130	    0.000206	   -0.001925	   -0.007509	    0.005288	   -0.002221	    0.004994	    0.002663	    0.007657	    0.010482	    0.009499	    0.019982	   -0.001233	    0.002675	    0.001441	   -0.012316	    0.002128	   -0.010188	    0.000336	    0.004684	    0.005020	    0.024484	    0.007002	    0.031485	    0.009638	    0.005145	    0.014783	    0.000850	   -0.001950	   -0.001100	    0.005216	    0.002003	    0.007219	    0.026168	    0.015355	    0.041524	    0.002137	    0.009382	    0.011519	   -0.012694	    0.009511	   -0.003183	    0.026246	    0.011398	    0.037644	    0.012110	    0.003221	    0.015330	   -0.009846	   -0.005103	   -0.014949	   -0.001981	   -0.000577	   -0.002559	    0.000734	    0.000700	    0.001434	    0.010972	    0.010136	    0.021108	   -0.002582	    0.012689	    0.010107
     0.825	0	0	    0	   -0.001383	    0.012937	    0.011553	   -0.001534	   -0.002607	   -0.004141	   -0.004208	    0.000022	   -0.004186	    0.004037	    0.003546	    0.007583	    0.014169	    0.006522	    0.020692	   -0.000667	   -0.003297	   -0.003964	   -0.004722	   -0.002339	   -0.007061	   -0.000614	    0.000777	    0.000163	    0.021997	    0.009782	    0.031779	    0.012232	    0.009802	    0.022034	   -0.000919	   -0.003270	   -0.004190	    0.004656	    0.001933	    0.006590	    0.028231	    0.017585	    0.045816	    0.003632	    0.005275	    0.008907	   -0.001137	    0.000543	   -0.000595	    0.018878	    0.007952	    0.026830	    0.013181	    0.005153	    0.018334	   -0.014978	   -0.008918	   -0.023896	   -0.005431	   -0.001764	   -0.007196	   -0.000299	    0.001920	    0.001620	    0.009545	    0.008442	    0.017987	    0.010958	    0.001645	    0.012603
     0.900	0	0	    0	    0.002076	    0.006837	    0.008913	   -0.005980	   -0.002645	   -0.008625	   -0.006084	   -0.001652	   -0.007736	    0.002465	    0.003927	    0.006392	    0.014179	    0.009629	    0.023808	    0.001032	   -0.007115	   -0.006083	   -0.013888	   -0.002844	   -0.016732	   -0.017272	   -0.007195	   -0.024468	    0.024332	    0.002448	    0.026780	    0.013323	    0.012865	    0.026187	   -0.003156	   -0.004247	   -0.007403	    0.002603	    0.002334	    0.004936	    0.031166	    0.019671	    0.050837	   -0.004592	    0.001141	   -0.003451	   -0.004869	    0.002533	   -0.002336	    0.009533	   -0.011465	   -0.001931	    0.016124	    0.004701	    0.020825	   -0.018293	   -0.011199	   -0.029491	   -0.008902	   -0.002961	   -0.011863	   -0.001115	    0.000244	   -0.000871	    0.010636	    0.002802	    0.013438	   -0.004358	   -0.002687	   -0.007045
     0.975	0	0	    0	    0.024713	   -0.015718	    0.008995	   -0.006893	   -0.001678	   -0.008571	   -0.006792	   -0.006493	   -0.013285	    0.006896	   -0.001241	    0.005655	    0.019135	    0.005378	    0.024513	    0.004200	   -0.009361	   -0.005161	   -0.008309	   -0.004315	   -0.012624	   -0.018628	   -0.036000	   -0.054628	    0.025808	   -0.000452	    0.025356	    0.015341	    0.013155	    0.028496	   -0.001673	   -0.005353	   -0.007025	    0.002448	    0.001238	    0.003686	    0.032914	    0.022835	    0.055749	   -0.002394	   -0.004203	   -0.006597	   -0.005563	    0.013890	    0.008327	    0.003957	   -0.031958	   -0.028001	    0.020283	    0.003301	    0.023584	   -0.013240	   -0.013457	   -0.026697	   -0.004647	   -0.005135	   -0.009781	   -0.002060	    0.001441	   -0.000619	    0.018269	    0.009194	    0.027463	   -0.007875	   -0.002766	   -0.010641
     1.050	0	0	    0	    0.021780	   -0.009362	    0.012418	    0.002764	   -0.004920	   -0.002156	    0.001111	   -0.005171	   -0.004060	    0.010409	    0.001555	    0.011964	    0.030448	    0.007664	    0.038112	    0.019881	   -0.015885	    0.003995	    0.006482	   -0.006615	   -0.000133	   -0.021902	   -0.044483	   -0.066385	    0.047131	    0.002933	    0.050064	    0.024547	    0.013944	    0.038491	    0.001706	   -0.004667	   -0.002961	    0.009216	    0.000381	    0.009597	    0.043283	    0.027557	    0.070841	    0.001542	   -0.002643	   -0.001101	    0.004391	    0.014613	    0.019005	    0.021040	   -0.038384	   -0.017344	    0.041194	    0.007657	    0.048851	   -0.007641	   -0.011657	   -0.019298	    0.000631	   -0.003973	   -0.003342	    0.005338	    0.006519	    0.011857	    0.022382	    0.023238	    0.045620	   -0.012532	    0.001972	   -0.010560
     1.125	0	0	    0	    0.002422	    0.013354	    0.015775	    0.004559	   -0.003708	    0.000851	    0.000323	   -0.002432	   -0.002109	    0.010346	    0.005030	    0.015377	    0.029021	    0.013627	    0.042648	    0.013370	   -0.009531	    0.003838	    0.000602	   -0.004817	   -0.004215	   -0.024609	   -0.047154	   -0.071764	    0.054680	    0.007837	    0.062517	    0.028085	    0.015453	    0.043538	    0.003690	   -0.004084	   -0.000394	    0.012043	    0.002613	    0.014656	    0.046868	    0.031344	    0.078211	    0.001267	   -0.002250	   -0.000983	    0.001489	    0.015334	    0.016823	    0.024993	   -0.041663	   -0.016670	    0.049367	    0.011562	    0.060929	   -0.004278	   -0.010964	   -0.015242	    0.004226	   -0.003482	    0.000744	    0.011379	    0.006884	    0.018262	    0.027036	    0.025148	    0.052185	   -0.009807	   -0.005242	   -0.015049
     1.200	0	0	    0	    0.016208	    0.004818	    0.021026	    0.008033	   -0.004634	    0.003399	    0.011960	   -0.011076	    0.000884	    0.014150	    0.005608	    0.019758	    0.036777	    0.010404	    0.047181	    0.024215	   -0.018252	    0.005963	    0.020454	   -0.018052	    0.002402	   -0.023855	   -0.048099	   -0.071954	    0.058682	    0.010467	    0.069150	    0.029948	    0.016033	    0.045981	    0.005838	   -0.004056	    0.001782	    0.014768	    0.002822	    0.017590	    0.054151	    0.027790	    0.081941	   -0.000720	   -0.000852	   -0.001572	    0.013770	    0.007572	    0.021343	    0.027281	   -0.043002	   -0.015721	    0.054553	    0.013889	    0.068442	   -0.002749	   -0.010134	   -0.012883	    0.006297	   -0.003017	    0.003280	    0.017463	    0.004752	    0.022215	    0.030716	    0.022846	    0.053562	   -0.005277	   -0.013119	   -0.018396
     1.275	0	0	    0	    0.015764	    0.008032	    0.023796	    0.002660	   -0.000529	    0.002131	    0.001786	   -0.003077	   -0.001291	    0.015992	    0.005052	    0.021044	    0.038124	    0.013535	    0.051659	    0.016000	   -0.008018	    0.007982	    0.004611	    0.001865	    0.006476	   -0.021231	   -0.055852	   -0.077083	    0.057704	    0.009002	    0.066706	    0.030588	    0.015825	    0.046412	    0.007053	   -0.003984	    0.003069	    0.016019	    0.003255	    0.019274	    0.059055	    0.023602	    0.082657	    0.000187	   -0.002887	   -0.002700	    0.016325	    0.008988	    0.025313	    0.021975	   -0.047155	   -0.025180	    0.053599	    0.014433	    0.068032	   -0.002168	   -0.010339	   -0.012507	    0.006821	   -0.003311	    0.003510	    0.020995	    0.002521	    0.023516	    0.033988	    0.018505	    0.052494	   -0.002014	   -0.016891	   -0.018905
     1.350	0	0	    0	    0.026659	   -0.001229	    0.025430	    0.001925	   -0.005143	   -0.003218	    0.004064	   -0.004186	   -0.000121	    0.018734	    0.004149	    0.022882	    0.040023	    0.014839	    0.054862	    0.021439	   -0.014777	    0.006662	    0.014915	   -0.002633	    0.012281	   -0.023279	   -0.056067	   -0.079346	    0.054568	    0.011705	    0.066273	    0.030826	    0.016429	    0.047255	    0.003396	   -0.001879	    0.001517	    0.016663	    0.003832	    0.020495	    0.057725	    0.026014	    0.083739	   -0.001667	    0.002287	    0.000620	    0.013689	    0.012359	    0.026048	    0.017789	   -0.048055	   -0.030266	    0.055027	    0.016272	    0.071298	   -0.001056	   -0.007453	   -0.008509	    0.006031	   -0.001434	    0.004597	    0.020843	    0.004924	    0.025767	    0.033592	    0.019264	    0.052857	   -0.008988	   -0.011293	   -0.020281
     1.425	0	0	    0	    0.023516	    0.010958	    0.034473	    0.003560	   -0.008460	   -0.004901	    0.002731	   -0.009190	   -0.006460	    0.019278	    0.005689	    0.024968	    0.040766	    0.017858	    0.058623	    0.024784	   -0.018312	    0.006472	    0.024767	   -0.008915	    0.015851	   -0.025833	   -0.058980	   -0.084814	    0.054204	    0.011265	    0.065469	    0.029921	    0.015348	    0.045269	    0.003791	   -0.006174	   -0.002383	    0.017504	    0.003647	    0.021151	    0.056906	    0.029228	    0.086134	    0.005257	   -0.004012	    0.001245	    0.025855	    0.006618	    0.032473	    0.014416	   -0.051486	   -0.037070	    0.054714	    0.018525	    0.073239	   -0.001711	   -0.009747	   -0.011458	    0.005922	   -0.003650	    0.002272	    0.019981	    0.008183	    0.028164	    0.031215	    0.021878	    0.053093	   -0.003106	   -0.017512	   -0.020618
     1.500	0	0	    0	    0.022608	    0.008437	    0.031045	   -0.001081	   -0.005068	   -0.006149	   -0.003491	   -0.004310	   -0.007801	    0.018780	    0.007106	    0.025886	    0.042163	    0.017936	    0.060099	    0.010386	   -0.006358	    0.004029	    0.005685	    0.016515	    0.022200	   -0.028342	   -0.059919	   -0.088260	    0.050783	    0.011978	    0.062761	    0.027506	    0.014823	    0.042329	    0.002255	   -0.006156	   -0.003901	    0.016479	    0.003881	    0.020359	    0.057359	    0.029004	    0.086362	   -0.004693	   -0.002562	   -0.007255	    0.013458	    0.021528	    0.034987	    0.007770	   -0.052706	   -0.044936	    0.052420	    0.019263	    0.071682	   -0.003041	   -0.009750	   -0.012791	    0.005710	   -0.003600	    0.002110	    0.018201	    0.009946	    0.028147	    0.028559	    0.022420	    0.050979	   -0.009220	   -0.019594	   -0.028813
     1.575	0	0	    0	    0.023750	    0.008818	    0.032568	    0.001507	   -0.005255	   -0.003747	    0.000303	   -0.008480	   -0.008177	    0.017830	    0.007852	    0.025682	    0.041701	    0.018532	    0.060233	    0.014512	   -0.013334	    0.001178	    0.016478	    0.002239	    0.018717	   -0.024185	   -0.065370	   -0.089555	    0.050806	    0.011198	    0.062005	    0.026841	    0.014103	    0.040944	    0.003008	   -0.006484	   -0.003476	    0.016015	    0.003296	    0.019311	    0.054801	    0.029950	    0.084751	   -0.000479	   -0.006844	   -0.007323	    0.024385	    0.009293	    0.033678	    0.004810	   -0.055221	   -0.050411	    0.050350	    0.018633	    0.068983	   -0.003646	   -0.010661	   -0.014308	    0.005793	   -0.003839	    0.001953	    0.016276	    0.010255	    0.026530	    0.028132	    0.021563	    0.049695	   -0.004203	   -0.023325	   -0.027528
     1.650	0	0	    0	    0.021832	    0.003061	    0.024894	    0.000632	   -0.004190	   -0.003557	    0.002338	   -0.012443	   -0.010105	    0.019772	    0.004508	    0.024280	    0.046084	    0.017027	    0.063111	    0.013049	   -0.011554	    0.001494	    0.012024	    0.008568	    0.020592	   -0.025060	   -0.065828	   -0.090888	    0.049258	    0.009484	    0.058741	    0.025202	    0.013648	    0.038850	    0.001996	   -0.005448	   -0.003453	    0.014935	    0.003331	    0.018266	    0.056502	    0.028754	    0.085256	   -0.004253	   -0.004736	   -0.008989	    0.013738	    0.018364	    0.032101	    0.002727	   -0.057627	   -0.054900	    0.048312	    0.016818	    0.065130	   -0.005853	   -0.010471	   -0.016324	    0.003887	   -0.003378	    0.000509	    0.015221	    0.008721	    0.023942	    0.026914	    0.020639	    0.047554	   -0.009060	   -0.024468	   -0.033528
     1.725	0	0	    0	    0.024840	    0.004718	    0.029559	   -0.000658	   -0.003238	   -0.003896	    0.004056	   -0.012298	   -0.008242	    0.017443	    0.006777	    0.024220	    0.049155	    0.016244	    0.065399	    0.021569	   -0.022768	   -0.001198	    0.034859	   -0.012011	    0.022848	   -0.027489	   -0.064111	   -0.091600	    0.044208	    0.011931	    0.056139	    0.024181	    0.013561	    0.037742	    0.002618	   -0.006092	   -0.003475	    0.013966	    0.003111	    0.017077	    0.051409	    0.034847	    0.086257	   -0.001642	   -0.007708	   -0.009350	    0.021851	    0.008744	    0.030595	   -0.000321	   -0.058989	   -0.059310	    0.045301	    0.016031	    0.061332	   -0.006720	   -0.011304	   -0.018024	    0.002728	   -0.003625	   -0.000897	    0.012716	    0.009251	    0.021967	    0.023952	    0.023117	    0.047069	   -0.002715	   -0.025981	   -0.028696
     1.800	0	0	    0	    0.013402	    0.008351	    0.021753	   -0.000206	   -0.004924	   -0.005130	   -0.003890	   -0.004422	   -0.008312	    0.017385	    0.004746	    0.022131	    0.043495	    0.018455	    0.061950	    0.009723	   -0.013331	   -0.003608	    0.013154	    0.012345	    0.025499	   -0.029553	   -0.064235	   -0.093788	    0.042671	    0.009310	    0.051981	    0.022104	    0.014171	    0.036275	    0.001393	   -0.005690	   -0.004298	    0.012754	    0.003284	    0.016038	    0.055055	    0.028156	    0.083211	   -0.007531	   -0.001335	   -0.008866	    0.028419	    0.006514	    0.034934	   -0.002913	   -0.061075	   -0.063987	    0.043781	    0.014486	    0.058267	   -0.008432	   -0.011261	   -0.019692	    0.001863	   -0.004154	   -0.002291	    0.012225	    0.007727	    0.019951	    0.023923	    0.020872	    0.044796	   -0.003868	   -0.025861	   -0.029730
     1.875	0	0	    0	    0.030446	   -0.009637	    0.020809	   -0.001724	   -0.004594	   -0.006318	   -0.008475	   -0.003238	   -0.011714	    0.015944	    0.005452	    0.021395	    0.044511	    0.018688	    0.063199	    0.007908	   -0.013963	   -0.006055	    0.007215	    0.014726	    0.021942	   -0.030338	   -0.066134	   -0.096472	    0.038561	    0.010216	    0.048777	    0.020406	    0.014071	    0.034477	    0.000614	   -0.005418	   -0.004804	    0.011886	    0.003081	    0.014967	    0.050332	    0.031973	    0.082306	   -0.007073	   -0.003450	   -0.010523	    0.029581	    0.001655	    0.031236	   -0.006975	   -0.061542	   -0.068517	    0.040476	    0.014642	    0.055119	   -0.009979	   -0.011755	   -0.021734	    0.000314	   -0.004121	   -0.003807	    0.008207	    0.009556	    0.017763	    0.020618	    0.021893	    0.042511	   -0.002586	   -0.027059	   -0.029645
     1.950	0	0	    0	    0.017862	    0.001801	    0.019663	   -0.004474	   -0.002457	   -0.006931	   -0.006827	   -0.006155	   -0.012982	    0.013698	    0.005632	    0.019330	    0.040364	    0.020514	    0.060878	    0.005112	   -0.013990	   -0.008878	    0.008096	    0.010143	    0.018239	   -0.030399	   -0.067207	   -0.097605	    0.037605	    0.008340	    0.045945	    0.020541	    0.012850	    0.033392	    0.000911	   -0.005950	   -0.005040	    0.010214	    0.003598	    0.013811	    0.051924	    0.029019	    0.080943	   -0.006188	   -0.005512	   -0.011700	    0.025580	    0.009199	    0.034779	   -0.008382	   -0.063585	   -0.071967	    0.038825	    0.013356	    0.052181	   -0.008935	   -0.012381	   -0.021316	    0.000580	   -0.004567	   -0.003986	    0.008199	    0.007376	    0.015574	    0.021795	    0.019233	    0.041028	   -0.003938	   -0.025491	   -0.029430
     2.025	0	0	    0	    0.025457	   -0.005124	    0.020333	    0.003997	   -0.003654	    0.000343	    0.001017	   -0.006755	   -0.005738	    0.017251	    0.005025	    0.022276	    0.048240	    0.015555	    0.063795	    0.017135	   -0.016558	    0.000576	    0.019587	    0.005391	    0.024978	   -0.026383	   -0.067469	   -0.093852	    0.054788	    0.006722	    0.061510	    0.028590	    0.012971	    0.041560	    0.003970	   -0.005356	   -0.001386	    0.013848	    0.001910	    0.015758	    0.058777	    0.028023	    0.086800	   -0.000017	   -0.004533	   -0.004550	    0.026701	    0.007978	    0.034679	    0.010909	   -0.062970	   -0.052060	    0.056125	    0.013078	    0.069202	   -0.002697	   -0.011534	   -0.014231	    0.006292	   -0.004143	    0.002149	    0.016655	    0.006825	    0.023480	    0.030647	    0.019079	    0.049726	    0.000561	   -0.026609	   -0.026048
     2.100	0	0	    0	    0.036118	   -0.015011	    0.021107	    0.007020	   -0.002704	    0.004316	    0.006222	   -0.006553	   -0.000331	    0.022688	    0.004527	    0.027215	    0.054736	    0.015512	    0.070248	    0.021244	   -0.015103	    0.006141	    0.016437	    0.009254	    0.025691	   -0.020548	   -0.069006	   -0.089553	    0.060767	    0.016051	    0.076818	    0.032566	    0.014472	    0.047038	    0.005142	   -0.004396	    0.000746	    0.018199	    0.003272	    0.021471	    0.060015	    0.033587	    0.093602	    0.003228	   -0.003763	   -0.000535	    0.022566	    0.015116	    0.037682	    0.016775	   -0.055776	   -0.039001	    0.063182	    0.019596	    0.082778	   -0.000617	   -0.009957	   -0.010574	    0.009066	   -0.003201	    0.005865	    0.019544	    0.011676	    0.031220	    0.030501	    0.023400	    0.053900	   -0.000588	   -0.024772	   -0.025360
     2.175	0	0	    0	    0.025626	    0.000985	    0.026611	    0.007769	    0.001272	    0.009041	    0.004026	   -0.001200	    0.002825	    0.024156	    0.007185	    0.031341	    0.054230	    0.019307	    0.073537	    0.015293	   -0.005337	    0.009956	    0.017577	    0.016540	    0.034118	   -0.022411	   -0.065468	   -0.087879	    0.068095	    0.014761	    0.082856	    0.033694	    0.015468	    0.049161	    0.007355	   -0.004600	    0.002754	    0.020212	    0.003793	    0.024006	    0.064924	    0.031070	    0.095994	   -0.000180	   -0.000498	   -0.000678	    0.030486	    0.012649	    0.043135	    0.021661	   -0.056732	   -0.035071	    0.068529	    0.019672	    0.088201	    0.001224	   -0.009817	   -0.008594	    0.010901	   -0.002970	    0.007931	    0.023455	    0.010219	    0.033673	    0.034411	    0.020138	    0.054550	    0.001753	   -0.024674	   -0.022921
     2.250	0	0	    0	    0.015590	    0.017313	    0.032903	    0.009744	   -0.002128	    0.007616	    0.005538	   -0.007390	   -0.001852	    0.023007	    0.009100	    0.032107	    0.051043	    0.024611	    0.075653	    0.020174	   -0.010725	    0.009449	    0.023181	    0.010047	    0.033228	   -0.024814	   -0.061650	   -0.086464	    0.067828	    0.014578	    0.082406	    0.032704	    0.015118	    0.047822	    0.006752	   -0.004060	    0.002692	    0.020393	    0.004748	    0.025141	    0.064293	    0.030921	    0.095214	    0.000077	   -0.004290	   -0.004213	    0.029802	    0.011998	    0.041800	    0.018947	   -0.054999	   -0.036052	    0.066546	    0.021337	    0.087883	    0.000560	   -0.009471	   -0.008911	    0.010827	   -0.003111	    0.007716	    0.022737	    0.010718	    0.033455	    0.033747	    0.019915	    0.053662	   -0.003188	   -0.025791	   -0.028980
     2.325	0	0	    0	    0.050715	   -0.021610	    0.029104	    0.008689	   -0.002002	    0.006687	    0.003316	   -0.004411	   -0.001095	    0.026822	    0.005076	    0.031898	    0.058194	    0.016252	    0.074446	    0.021257	   -0.012733	    0.008523	    0.017340	    0.016034	    0.033374	   -0.019294	   -0.066661	   -0.085955	    0.066123	    0.014189	    0.080311	    0.033175	    0.013781	    0.046956	    0.007497	   -0.004840	    0.002657	    0.021375	    0.003307	    0.024681	    0.061826	    0.031919	    0.093745	    0.000571	   -0.002980	   -0.002409	    0.035830	    0.004586	    0.040416	    0.020535	   -0.057885	   -0.037350	    0.067795	    0.019132	    0.086927	    0.001139	   -0.009785	   -0.008646	    0.011314	   -0.003488	    0.007826	    0.023079	    0.009530	    0.032609	    0.033375	    0.019819	    0.053194	   -0.001670	   -0.024683	   -0.026353
     2.400	0	0	    0	    0.023900	    0.011417	    0.035317	    0.006470	   -0.001348	    0.005122	    0.006349	   -0.008172	   -0.001822	    0.024603	    0.008328	    0.032931	    0.050946	    0.023148	    0.074095	    0.023746	   -0.019441	    0.004305	    0.025575	    0.006629	    0.032204	   -0.022293	   -0.062266	   -0.084559	    0.066122	    0.014850	    0.080972	    0.032102	    0.013793	    0.045896	    0.006845	   -0.004501	    0.002344	    0.021845	    0.003576	    0.025421	    0.065603	    0.028329	    0.093932	   -0.002640	    0.001946	   -0.000693	    0.029795	    0.011607	    0.041402	    0.020104	   -0.056843	   -0.036738	    0.067495	    0.020013	    0.087509	    0.002906	   -0.009521	   -0.006615	    0.011195	   -0.003285	    0.007910	    0.023803	    0.009376	    0.033179	    0.033862	    0.020177	    0.054039	    0.008927	   -0.029639	   -0.020712
     2.475	0	0	    0	    0.033021	   -0.002908	    0.030113	    0.004109	   -0.006223	   -0.002114	   -0.000640	   -0.003812	   -0.004452	    0.023107	    0.008753	    0.031860	    0.054267	    0.018015	    0.072282	    0.013378	   -0.011901	    0.001477	    0.021958	    0.006060	    0.028018	   -0.021297	   -0.066291	   -0.087588	    0.061035	    0.013947	    0.074982	    0.028645	    0.012909	    0.041554	    0.005055	   -0.005972	   -0.000918	    0.021567	    0.003549	    0.025116	    0.065143	    0.028729	    0.093872	   -0.000672	   -0.004050	   -0.004722	    0.031315	    0.004576	    0.035891	    0.018473	   -0.057464	   -0.038992	    0.066106	    0.019504	    0.085609	    0.001679	   -0.009113	   -0.007434	    0.010687	   -0.003601	    0.007087	    0.023055	    0.008731	    0.031786	    0.034569	    0.018099	    0.052668	   -0.001462	   -0.020955	   -0.022418
     2.550	0	0	    0	    0.027706	    0.007491	    0.035197	    0.004239	   -0.006724	   -0.002486	    0.003614	   -0.009414	   -0.005800	    0.022835	    0.007621	    0.030456	    0.053079	    0.020813	    0.073893	    0.017071	   -0.017104	   -0.000034	    0.026176	    0.004971	    0.031147	   -0.022191	   -0.063192	   -0.085383	    0.058939	    0.013493	    0.072432	    0.027544	    0.010989	    0.038533	    0.005719	   -0.006665	   -0.000947	    0.020834	    0.003987	    0.024821	    0.064376	    0.029551	    0.093928	    0.001718	   -0.007667	   -0.005949	    0.030319	    0.006406	    0.036725	    0.017000	   -0.058043	   -0.041043	    0.062978	    0.018151	    0.081129	    0.000278	   -0.009550	   -0.009272	    0.009616	   -0.003564	    0.006051	    0.022441	    0.008003	    0.030444	    0.033166	    0.018783	    0.051949	    0.003209	   -0.024914	   -0.021704
     2.625	0	0	    0	    0.032419	   -0.006689	    0.025730	    0.005831	   -0.007072	   -0.001241	    0.000401	   -0.004558	   -0.004157	    0.022645	    0.008311	    0.030956	    0.053572	    0.019556	    0.073128	    0.011222	   -0.014538	   -0.003316	    0.017615	    0.006182	    0.023797	   -0.021932	   -0.065293	   -0.087225	    0.057193	    0.011837	    0.069030	    0.026720	    0.011234	    0.037954	    0.005620	   -0.005427	    0.000192	    0.019797	    0.003805	    0.023601	    0.063897	    0.028239	    0.092136	   -0.004935	   -0.005457	   -0.010392	    0.023718	    0.008652	    0.032370	    0.013929	   -0.059606	   -0.045677	    0.060551	    0.017079	    0.077631	   -0.001091	   -0.010187	   -0.011278	    0.008350	   -0.003430	    0.004920	    0.020391	    0.008442	    0.028832	    0.031646	    0.017626	    0.049272	   -0.004133	   -0.019887	   -0.024020
     2.700	0	0	    0	    0.030716	    0.000007	    0.030723	    0.006480	   -0.007113	   -0.000633	    0.007705	   -0.011636	   -0.003931	    0.021848	    0.007846	    0.029694	    0.056996	    0.017781	    0.074778	    0.029208	   -0.031072	   -0.001864	    0.028136	    0.000769	    0.028904	   -0.023960	   -0.062919	   -0.086880	    0.054786	    0.012435	    0.067221	    0.025860	    0.010763	    0.036623	    0.003990	   -0.004918	   -0.000928	    0.018204	    0.003983	    0.022187	    0.057292	    0.034594	    0.091886	   -0.001553	   -0.010703	   -0.012256	    0.032568	    0.008650	    0.041218	    0.009896	   -0.058860	   -0.048963	    0.057497	    0.016488	    0.073984	   -0.001897	   -0.010543	   -0.012440	    0.007520	   -0.003965	    0.003555	    0.017796	    0.009598	    0.027394	    0.029496	    0.018137	    0.047633	    0.006461	   -0.030706	   -0.024245
     2.775	0	0	    0	    0.010458	    0.021979	    0.032437	    0.004378	   -0.006890	   -0.002511	    0.001655	   -0.004074	   -0.002419	    0.019996	    0.008711	    0.028708	    0.051679	    0.022221	    0.073901	    0.016562	   -0.018835	   -0.002274	    0.031012	    0.006294	    0.037306	   -0.023058	   -0.064646	   -0.087704	    0.049984	    0.012995	    0.062978	    0.024020	    0.009722	    0.033742	    0.001254	   -0.006133	   -0.004879	    0.016444	    0.003792	    0.020235	    0.059278	    0.029924	    0.089201	   -0.004997	   -0.011065	   -0.016062	    0.023347	    0.016401	    0.039748	    0.008823	   -0.060579	   -0.051756	    0.055132	    0.016051	    0.071183	   -0.002895	   -0.009967	   -0.012861	    0.005984	   -0.003787	    0.002196	    0.016739	    0.009132	    0.025871	    0.026642	    0.018980	    0.045622	    0.000501	   -0.025897	   -0.025396
     2.850	0	0	    0	    0.032220	   -0.002786	    0.029434	    0.001966	   -0.005826	   -0.003860	    0.000777	   -0.009055	   -0.008277	    0.020409	    0.005941	    0.026350	    0.048021	    0.024291	    0.072313	    0.018272	   -0.023360	   -0.005087	    0.018206	    0.007949	    0.026155	   -0.022802	   -0.066734	   -0.089536	    0.048027	    0.011573	    0.059599	    0.021929	    0.009023	    0.030952	    0.001762	   -0.008130	   -0.006369	    0.014942	    0.003187	    0.018129	    0.055283	    0.030152	    0.085434	   -0.011007	   -0.006449	   -0.017456	    0.029238	    0.007752	    0.036991	    0.005086	   -0.059705	   -0.054619	    0.053000	    0.015162	    0.068162	   -0.004576	   -0.010013	   -0.014590	    0.004442	   -0.004002	    0.000440	    0.014519	    0.009310	    0.023828	    0.026890	    0.016502	    0.043392	    0.000011	   -0.027419	   -0.027408
     2.925	0	0	    0	    0.016558	    0.009742	    0.026299	    0.001733	   -0.006012	   -0.004279	   -0.003013	   -0.006058	   -0.009071	    0.017734	    0.006972	    0.024707	    0.049150	    0.020661	    0.069811	    0.011054	   -0.020803	   -0.009749	    0.016253	    0.005326	    0.021579	   -0.025378	   -0.066013	   -0.091391	    0.046322	    0.009533	    0.055856	    0.019310	    0.010290	    0.029600	    0.000468	   -0.007358	   -0.006890	    0.013376	    0.002838	    0.016214	    0.054505	    0.027764	    0.082270	   -0.012831	   -0.004798	   -0.017630	    0.022518	    0.009381	    0.031899	    0.002593	   -0.061515	   -0.058922	    0.050295	    0.014701	    0.064996	   -0.005618	   -0.011129	   -0.016747	    0.002701	   -0.003984	   -0.001283	    0.012239	    0.008614	    0.020854	    0.024771	    0.017001	    0.041773	   -0.003799	   -0.024862	   -0.028661
     3.000	0	0	    0	    0.020879	    0.009715	    0.030594	    0.003541	   -0.006505	   -0.002965	   -0.002045	   -0.006120	   -0.008165	    0.016340	    0.007509	    0.023849	    0.047324	    0.022011	    0.069335	    0.014134	   -0.019956	   -0.005822	    0.017818	    0.006696	    0.024513	   -0.025099	   -0.065195	   -0.090293	    0.045062	    0.009616	    0.054678	    0.020810	    0.009144	    0.029954	    0.002078	   -0.007623	   -0.005545	    0.012141	    0.003005	    0.015146	    0.052097	    0.027946	    0.080042	   -0.010401	   -0.008099	   -0.018501	    0.022657	    0.010371	    0.033028	    0.004012	   -0.063108	   -0.059096	    0.050928	    0.012052	    0.062980	   -0.003417	   -0.012046	   -0.015463	    0.004659	   -0.004821	   -0.000161	    0.010897	    0.008396	    0.019293	    0.024984	    0.017205	    0.042189	   -0.002222	   -0.024116	   -0.026338
     3.075	0	0	    0	    0.022201	    0.003517	    0.025717	    0.008826	   -0.005456	    0.003371	    0.006063	   -0.008709	   -0.002645	    0.021145	    0.005583	    0.026729	    0.051681	    0.023502	    0.075183	    0.021943	   -0.019058	    0.002885	    0.024999	    0.011755	    0.036754	   -0.021805	   -0.064460	   -0.086265	    0.063954	    0.008969	    0.072923	    0.029784	    0.008615	    0.038399	    0.005492	   -0.006984	   -0.001492	    0.017314	    0.001805	    0.019119	    0.060520	    0.028319	    0.088839	   -0.003460	   -0.007040	   -0.010499	    0.025830	    0.010423	    0.036252	    0.021632	   -0.058935	   -0.037303	    0.066031	    0.015104	    0.081135	    0.000748	   -0.010829	   -0.010081	    0.009415	   -0.004123	    0.005292	    0.019441	    0.009273	    0.028714	    0.032147	    0.018343	    0.050490	   -0.002002	   -0.020041	   -0.022043
     3.150	0	0	    0	    0.024007	    0.003024	    0.027031	    0.009904	   -0.003675	    0.006229	    0.009599	   -0.010454	   -0.000855	    0.022418	    0.008707	    0.031125	    0.053255	    0.024389	    0.077644	    0.022713	   -0.020566	    0.002147	    0.028120	    0.000975	    0.029094	   -0.022749	   -0.062089	   -0.084837	    0.066219	    0.015537	    0.081756	    0.031651	    0.010100	    0.041751	    0.007696	   -0.006223	    0.001473	    0.020204	    0.003352	    0.023556	    0.064622	    0.029377	    0.093999	    0.000136	   -0.009570	   -0.009433	    0.031066	    0.007152	    0.038218	    0.027325	   -0.058376	   -0.031051	    0.070278	    0.018331	    0.088610	    0.002348	   -0.010538	   -0.008190	    0.011097	   -0.003393	    0.007704	    0.022440	    0.010944	    0.033384	    0.035177	    0.018104	    0.053282	    0.005548	   -0.026893	   -0.021345
     3.225	0	0	    0	    0.024043	    0.008484	    0.032527	    0.011360	   -0.002205	    0.009154	    0.007324	   -0.003839	    0.003486	    0.023358	    0.010363	    0.033721	    0.052874	    0.025185	    0.078059	    0.020859	   -0.017078	    0.003781	    0.021372	    0.007497	    0.028869	   -0.020743	   -0.062452	   -0.083195	    0.070804	    0.014387	    0.085191	    0.032444	    0.011247	    0.043692	    0.008070	   -0.005408	    0.002662	    0.021626	    0.003685	    0.025311	    0.063113	    0.032096	    0.095209	   -0.000541	   -0.008090	   -0.008631	    0.031315	    0.004576	    0.035891	    0.027509	   -0.055748	   -0.028239	    0.072028	    0.019368	    0.091396	    0.003668	   -0.010729	   -0.007061	    0.011741	   -0.003153	    0.008588	    0.023559	    0.011555	    0.035113	    0.035676	    0.018507	    0.054183	    0.008306	   -0.025926	   -0.017620
     3.300	0	0	    0	    0.037011	   -0.004279	    0.032733	    0.008289	   -0.003323	    0.004965	    0.006530	   -0.004906	    0.001624	    0.026120	    0.008132	    0.034252	    0.058308	    0.021546	    0.079854	    0.021787	   -0.018824	    0.002963	    0.022969	    0.016069	    0.039038	   -0.019920	   -0.064287	   -0.084206	    0.066953	    0.015502	    0.082455	    0.031479	    0.009843	    0.041322	    0.008068	   -0.005972	    0.002096	    0.021947	    0.003552	    0.025499	    0.063648	    0.030972	    0.094620	   -0.002595	   -0.005837	   -0.008432	    0.035600	    0.007566	    0.043166	    0.025017	   -0.056611	   -0.031594	    0.071860	    0.018281	    0.090141	    0.003742	   -0.010295	   -0.006553	    0.011572	   -0.003252	    0.008321	    0.023138	    0.010858	    0.033996	    0.035749	    0.017381	    0.053130	    0.000470	   -0.021381	   -0.020910
     3.375	0	0	    0	    0.026656	    0.007899	    0.034555	    0.009594	   -0.005249	    0.004345	    0.008012	   -0.005564	    0.002449	    0.025333	    0.008903	    0.034236	    0.054642	    0.023626	    0.078269	    0.019528	   -0.015970	    0.003558	    0.023747	    0.011650	    0.035397	   -0.021854	   -0.061444	   -0.083297	    0.068709	    0.013585	    0.082294	    0.032515	    0.009069	    0.041584	    0.008730	   -0.005765	    0.002966	    0.021553	    0.003610	    0.025163	    0.064735	    0.030446	    0.095181	   -0.002070	   -0.005550	   -0.007620	    0.033667	    0.007683	    0.041350	    0.027331	   -0.057935	   -0.030603	    0.072516	    0.017860	    0.090375	    0.003021	   -0.009994	   -0.006973	    0.011670	   -0.003352	    0.008318	    0.023768	    0.009964	    0.033733	    0.036190	    0.017567	    0.053758	    0.000261	   -0.019900	   -0.019639
     3.450	0	0	    0	    0.036513	   -0.005489	    0.031024	    0.007770	   -0.003620	    0.004150	    0.008289	   -0.007643	    0.000645	    0.026862	    0.007534	    0.034396	    0.058575	    0.019294	    0.077868	    0.016139	   -0.015360	    0.000779	    0.022551	    0.004413	    0.026963	   -0.018437	   -0.065569	   -0.084006	    0.066479	    0.015127	    0.081606	    0.030724	    0.009495	    0.040219	    0.008876	   -0.005294	    0.003582	    0.021997	    0.002975	    0.024973	    0.063861	    0.029279	    0.093141	   -0.000723	   -0.010704	   -0.011427	    0.029575	    0.010502	    0.040076	    0.023547	   -0.056926	   -0.033378	    0.070526	    0.017790	    0.088316	    0.002216	   -0.010589	   -0.008372	    0.010882	   -0.003341	    0.007541	    0.022614	    0.010281	    0.032895	    0.035063	    0.016362	    0.051425	   -0.000641	   -0.023714	   -0.024355
     3.525	0	0	    0	    0.019833	    0.010122	    0.029955	    0.011297	   -0.006205	    0.005092	    0.011522	   -0.011097	    0.000425	    0.023970	    0.010050	    0.034020	    0.051680	    0.026080	    0.077760	    0.025028	   -0.022861	    0.002167	    0.030970	    0.002651	    0.033622	   -0.019883	   -0.064925	   -0.084808	    0.063533	    0.015372	    0.078905	    0.030503	    0.009420	    0.039923	    0.008478	   -0.005043	    0.003436	    0.020890	    0.003536	    0.024426	    0.061896	    0.032117	    0.094013	   -0.006227	   -0.004504	   -0.010731	    0.031846	    0.008672	    0.040518	    0.021189	   -0.056891	   -0.035702	    0.068675	    0.017315	    0.085990	    0.001372	   -0.011034	   -0.009662	    0.010308	   -0.003497	    0.006811	    0.021136	    0.010542	    0.031678	    0.034583	    0.016931	    0.051514	    0.000254	   -0.021992	   -0.021738
     3.600	0	0	    0	    0.034764	   -0.004197	    0.030567	    0.008571	   -0.003658	    0.004913	    0.009452	   -0.010003	   -0.000551	    0.025433	    0.007853	    0.033287	    0.055602	    0.020467	    0.076070	    0.019615	   -0.020855	   -0.001241	    0.024360	    0.009969	    0.034329	   -0.020821	   -0.064922	   -0.085743	    0.061774	    0.014745	    0.076519	    0.029488	    0.008812	    0.038300	    0.007780	   -0.004893	    0.002887	    0.020242	    0.002901	    0.023143	    0.061335	    0.029802	    0.091138	   -0.006109	   -0.003057	   -0.009167	    0.025206	    0.015943	    0.041150	    0.020199	   -0.059392	   -0.039193	    0.066744	    0.016061	    0.082805	    0.000660	   -0.011306	   -0.010646	    0.009323	   -0.003967	    0.005356	    0.019407	    0.009957	    0.029364	    0.032425	    0.017498	    0.049923	   -0.001670	   -0.022955	   -0.024626
     3.675	0	0	    0	    0.013294	    0.021126	    0.034420	    0.007756	   -0.004130	    0.003625	    0.001884	   -0.002921	   -0.001037	    0.020876	    0.010774	    0.031650	    0.049875	    0.026137	    0.076012	    0.019810	   -0.020535	   -0.000726	    0.017982	    0.010875	    0.028857	   -0.024308	   -0.062290	   -0.086598	    0.057542	    0.016171	    0.073713	    0.027668	    0.009450	    0.037119	    0.006620	   -0.004582	    0.002037	    0.018988	    0.002766	    0.021754	    0.057386	    0.033222	    0.090608	   -0.002745	   -0.011638	   -0.014383	    0.026590	    0.011951	    0.038541	    0.017332	   -0.060595	   -0.043263	    0.063976	    0.015943	    0.079919	   -0.000328	   -0.011494	   -0.011822	    0.007268	   -0.003351	    0.003917	    0.017167	    0.010139	    0.027306	    0.028459	    0.019468	    0.047927	   -0.003999	   -0.023061	   -0.027060
     3.750	0	0	    0	    0.038544	   -0.012613	    0.025930	    0.006935	   -0.005382	    0.001553	    0.005839	   -0.007250	   -0.001411	    0.024592	    0.006863	    0.031455	    0.055444	    0.019044	    0.074488	    0.014387	   -0.019098	   -0.004711	    0.028980	    0.003245	    0.032225	   -0.022197	   -0.065731	   -0.087928	    0.057172	    0.012252	    0.069424	    0.027386	    0.008556	    0.035942	    0.006364	   -0.004812	    0.001552	    0.017694	    0.003035	    0.020730	    0.058171	    0.029574	    0.087745	   -0.008990	   -0.004235	   -0.013226	    0.028472	    0.011472	    0.039944	    0.014355	   -0.060266	   -0.045911	    0.062471	    0.014546	    0.077017	   -0.001605	   -0.011724	   -0.013329	    0.006622	   -0.003904	    0.002717	    0.016379	    0.009514	    0.025893	    0.029682	    0.017882	    0.047564	   -0.006449	   -0.020009	   -0.026458
     3.825	0	0	    0	    0.024930	    0.005500	    0.030430	    0.004704	   -0.003092	    0.001611	    0.000640	   -0.004848	   -0.004208	    0.020661	    0.009228	    0.029889	    0.046105	    0.026106	    0.072211	    0.011602	   -0.020852	   -0.009251	    0.026738	    0.003541	    0.030278	   -0.022506	   -0.065741	   -0.088247	    0.053894	    0.012785	    0.066679	    0.025668	    0.008672	    0.034340	    0.006708	   -0.005971	    0.000737	    0.016552	    0.002520	    0.019071	    0.055960	    0.029784	    0.085744	   -0.004558	   -0.008850	   -0.013408	    0.033997	    0.005585	    0.039582	    0.012744	   -0.061837	   -0.049093	    0.060153	    0.014039	    0.074192	   -0.002855	   -0.011959	   -0.014814	    0.005505	   -0.004035	    0.001470	    0.015228	    0.008586	    0.023813	    0.028855	    0.016441	    0.045296	   -0.002772	   -0.023898	   -0.026670
     3.900	0	0	    0	    0.015515	    0.014678	    0.030193	    0.001164	   -0.000622	    0.000542	   -0.001153	   -0.002889	   -0.004042	    0.020652	    0.008464	    0.029115	    0.045088	    0.024580	    0.069668	    0.005153	   -0.013433	   -0.008280	    0.011666	    0.015198	    0.026863	   -0.028489	   -0.062870	   -0.091358	    0.051622	    0.012246	    0.063868	    0.024735	    0.009000	    0.033735	    0.004551	   -0.004706	   -0.000155	    0.014890	    0.002680	    0.017570	    0.054523	    0.028549	    0.083072	   -0.013412	   -0.001882	   -0.015294	    0.026378	    0.010454	    0.036832	    0.009949	   -0.062626	   -0.052676	    0.057654	    0.013822	    0.071475	   -0.003698	   -0.012400	   -0.016099	    0.003583	   -0.003849	   -0.000266	    0.012772	    0.008987	    0.021759	    0.027591	    0.016286	    0.043877	   -0.011552	   -0.021083	   -0.032635
     3.975	0	0	    0	    0.030862	   -0.011940	    0.018922	    0.001431	   -0.003374	   -0.001943	   -0.006440	   -0.002360	   -0.008800	    0.020471	    0.006760	    0.027231	    0.044941	    0.022517	    0.067458	    0.003491	   -0.014872	   -0.011381	    0.004767	    0.013467	    0.018234	   -0.025643	   -0.067807	   -0.093450	    0.047793	    0.011624	    0.059417	    0.021637	    0.010178	    0.031814	    0.004858	   -0.005898	   -0.001040	    0.013574	    0.002479	    0.016053	    0.051147	    0.029941	    0.081088	   -0.014253	   -0.004294	   -0.018546	    0.028242	    0.004771	    0.033013	    0.006265	   -0.063036	   -0.056771	    0.054845	    0.013170	    0.068015	   -0.005343	   -0.012871	   -0.018214	    0.002349	   -0.004135	   -0.001785	    0.010568	    0.008608	    0.019176	    0.023616	    0.017651	    0.041268	   -0.004628	   -0.028963	   -0.033591
     4.050	0	0	    0	    0.020624	    0.001917	    0.022541	    0.002741	   -0.002430	    0.000311	   -0.002252	   -0.003823	   -0.006075	    0.019355	    0.007496	    0.026851	    0.047485	    0.020255	    0.067740	    0.001452	   -0.008841	   -0.007389	    0.005958	    0.018079	    0.024037	   -0.026980	   -0.064566	   -0.091546	    0.052871	    0.008919	    0.061790	    0.026659	    0.007562	    0.034221	    0.007498	   -0.006370	    0.001128	    0.012960	    0.001873	    0.014833	    0.055975	    0.024406	    0.080381	   -0.007786	   -0.007616	   -0.015402	    0.033398	    0.005433	    0.038831	    0.015337	   -0.065994	   -0.050657	    0.060973	    0.010295	    0.071268	   -0.000636	   -0.013308	   -0.013944	    0.006442	   -0.004840	    0.001602	    0.013194	    0.007392	    0.020586	    0.028090	    0.017048	    0.045138	   -0.005286	   -0.023578	   -0.028864
     4.125	0	0	    0	    0.019155	    0.010990	    0.030144	    0.008036	   -0.001171	    0.006865	    0.004440	   -0.003480	    0.000960	    0.023017	    0.008631	    0.031648	    0.051822	    0.022376	    0.074199	    0.015448	   -0.015083	    0.000365	    0.016987	    0.011274	    0.028261	   -0.022203	   -0.063369	   -0.085573	    0.067524	    0.013253	    0.080777	    0.033229	    0.008990	    0.042219	    0.009453	   -0.005400	    0.004053	    0.018127	    0.002156	    0.020283	    0.061666	    0.028541	    0.090207	   -0.005630	   -0.006231	   -0.011861	    0.034280	    0.007831	    0.042111	    0.026640	   -0.057894	   -0.031254	    0.073262	    0.015650	    0.088912	    0.002744	   -0.012134	   -0.009390	    0.009976	   -0.003880	    0.006096	    0.020567	    0.008989	    0.029555	    0.034347	    0.017021	    0.051368	    0.003513	   -0.027795	   -0.024283
     4.200	0	0	    0	    0.017067	    0.011801	    0.028869	    0.012510	   -0.005105	    0.007405	    0.013979	   -0.012997	    0.000983	    0.025114	    0.008597	    0.033711	    0.051444	    0.024451	    0.075895	    0.018859	   -0.021117	   -0.002258	    0.033418	   -0.006537	    0.026881	   -0.020198	   -0.063735	   -0.083933	    0.071320	    0.014579	    0.085899	    0.034521	    0.009654	    0.044175	    0.010351	   -0.005000	    0.005352	    0.020298	    0.002974	    0.023272	    0.063907	    0.028957	    0.092864	   -0.001851	   -0.009324	   -0.011175	    0.024789	    0.017965	    0.042754	    0.030170	   -0.057235	   -0.027065	    0.076551	    0.016593	    0.093145	    0.003947	   -0.011875	   -0.007928	    0.011291	   -0.003341	    0.007950	    0.022243	    0.010805	    0.033048	    0.035936	    0.016686	    0.052622	   -0.006106	   -0.020837	   -0.026943
     4.275	0	0	    0	    0.029757	   -0.002434	    0.027323	    0.009331	   -0.001106	    0.008224	    0.008741	   -0.004999	    0.003742	    0.025709	    0.008989	    0.034698	    0.055245	    0.020606	    0.075851	    0.018243	   -0.020305	   -0.002063	    0.021387	    0.004277	    0.025665	   -0.018896	   -0.064190	   -0.083087	    0.069785	    0.017433	    0.087218	    0.034845	    0.009447	    0.044291	    0.009974	   -0.004204	    0.005770	    0.021628	    0.002953	    0.024581	    0.061275	    0.032967	    0.094242	   -0.003871	   -0.007032	   -0.010903	    0.029499	    0.010004	    0.039503	    0.028862	   -0.055400	   -0.026538	    0.075903	    0.018486	    0.094389	    0.003792	   -0.011739	   -0.007947	    0.010800	   -0.002683	    0.008117	    0.021954	    0.012111	    0.034065	    0.035325	    0.017728	    0.053053	   -0.005912	   -0.018833	   -0.024745
     4.350	0	0	    0	    0.027835	   -0.000891	    0.026944	    0.012358	   -0.005722	    0.006636	    0.007646	   -0.005087	    0.002559	    0.026012	    0.008950	    0.034962	    0.055508	    0.020287	    0.075795	    0.017815	   -0.019169	   -0.001354	    0.025915	    0.001059	    0.026974	   -0.019399	   -0.064751	   -0.084150	    0.068349	    0.015748	    0.084097	    0.033803	    0.009411	    0.043214	    0.010755	   -0.004737	    0.006017	    0.020565	    0.003354	    0.023919	    0.063644	    0.029057	    0.092701	   -0.005333	   -0.004303	   -0.009636	    0.035755	    0.004488	    0.040243	    0.028068	   -0.057632	   -0.029564	    0.075310	    0.016283	    0.091593	    0.003833	   -0.012416	   -0.008583	    0.011312	   -0.003653	    0.007659	    0.021472	    0.011189	    0.032662	    0.035857	    0.016716	    0.052573	    0.003752	   -0.027209	   -0.023457
     4.425	0	0	    0	    0.036952	   -0.001429	    0.035523	    0.012365	   -0.003392	    0.008973	    0.007236	   -0.005449	    0.001786	    0.025958	    0.009360	    0.035317	    0.057917	    0.019133	    0.077049	    0.016635	   -0.015958	    0.000677	    0.028345	    0.001685	    0.030030	   -0.018746	   -0.065580	   -0.084326	    0.069823	    0.015462	    0.085285	    0.033977	    0.009262	    0.043238	    0.011002	   -0.004802	    0.006200	    0.020881	    0.003095	    0.023976	    0.063066	    0.030499	    0.093565	   -0.001782	   -0.005884	   -0.007666	    0.037217	    0.005866	    0.043083	    0.028308	   -0.057384	   -0.029076	    0.075547	    0.016437	    0.091983	    0.003921	   -0.012625	   -0.008704	    0.010778	   -0.003204	    0.007574	    0.021979	    0.010344	    0.032323	    0.035275	    0.018000	    0.053275	    0.005626	   -0.025882	   -0.020256
     4.500	0	0	    0	    0.028320	    0.011373	    0.039693	    0.013024	   -0.003432	    0.009591	    0.007770	   -0.003821	    0.003949	    0.024675	    0.010633	    0.035308	    0.053273	    0.022450	    0.075723	    0.021420	   -0.022541	   -0.001121	    0.029053	    0.006659	    0.035711	   -0.018293	   -0.064556	   -0.082849	    0.070631	    0.012836	    0.083467	    0.033362	    0.009299	    0.042661	    0.010346	   -0.004415	    0.005931	    0.020668	    0.002703	    0.023371	    0.064350	    0.027570	    0.091920	   -0.008206	   -0.002064	   -0.010270	    0.030986	    0.011523	    0.042510	    0.027722	   -0.058979	   -0.031256	    0.074402	    0.015726	    0.090128	    0.002566	   -0.012028	   -0.009462	    0.009975	   -0.003242	    0.006733	    0.022664	    0.008222	    0.030885	    0.035897	    0.015357	    0.051254	   -0.004814	   -0.022045	   -0.026859
     4.575	0	0	    0	    0.027714	    0.003810	    0.031524	    0.010670	   -0.003637	    0.007033	    0.003490	   -0.005199	   -0.001710	    0.023669	    0.010088	    0.033757	    0.052439	    0.021921	    0.074359	    0.009825	   -0.009281	    0.000544	    0.020532	    0.015595	    0.036127	   -0.020977	   -0.063745	   -0.084721	    0.066830	    0.013322	    0.080152	    0.031616	    0.009222	    0.040838	    0.009546	   -0.004554	    0.004992	    0.019889	    0.002652	    0.022541	    0.062931	    0.028638	    0.091568	   -0.005548	   -0.003781	   -0.009329	    0.030508	    0.013033	    0.043542	    0.024864	   -0.058934	   -0.034070	    0.072605	    0.014545	    0.087150	    0.002200	   -0.012988	   -0.010788	    0.009115	   -0.003315	    0.005800	    0.019810	    0.009960	    0.029770	    0.033309	    0.017751	    0.051061	    0.004542	   -0.028554	   -0.024012
     4.650	0	0	    0	    0.042488	   -0.007479	    0.035009	    0.009853	   -0.004556	    0.005298	    0.007540	   -0.007867	   -0.000327	    0.025590	    0.008803	    0.034393	    0.053572	    0.019556	    0.073128	    0.021017	   -0.025489	   -0.004472	    0.023976	    0.005455	    0.029431	   -0.019247	   -0.065926	   -0.085173	    0.062052	    0.015169	    0.077221	    0.030998	    0.007854	    0.038852	    0.009373	   -0.004615	    0.004758	    0.018626	    0.002702	    0.021329	    0.059969	    0.028640	    0.088608	   -0.011265	    0.000813	   -0.010452	    0.026144	    0.013188	    0.039332	    0.022246	   -0.059892	   -0.037645	    0.069877	    0.014146	    0.084023	    0.000532	   -0.012737	   -0.012205	    0.008376	   -0.003684	    0.004692	    0.018382	    0.009152	    0.027534	    0.032692	    0.016340	    0.049032	   -0.000873	   -0.026034	   -0.026907
     4.725	0	0	    0	    0.026773	    0.001344	    0.028117	    0.009795	   -0.004371	    0.005424	    0.008747	   -0.010889	   -0.002142	    0.022768	    0.009967	    0.032736	    0.050806	    0.021714	    0.072519	    0.015276	   -0.019060	   -0.003784	    0.027608	    0.005814	    0.033422	   -0.023468	   -0.063734	   -0.087202	    0.061450	    0.012737	    0.074188	    0.029201	    0.008322	    0.037522	    0.008417	   -0.004402	    0.004014	    0.017038	    0.002897	    0.019935	    0.057922	    0.031105	    0.089027	   -0.007840	   -0.004481	   -0.012321	    0.032738	    0.010032	    0.042771	    0.019622	   -0.060191	   -0.040569	    0.067447	    0.013751	    0.081197	    0.000152	   -0.013494	   -0.013342	    0.007014	   -0.003638	    0.003376	    0.017273	    0.008818	    0.026091	    0.029628	    0.018322	    0.047950	    0.002200	   -0.028299	   -0.026099
     4.800	0	0	    0	    0.038911	   -0.009389	    0.029522	    0.007011	   -0.003660	    0.003351	    0.003166	   -0.006505	   -0.003339	    0.024765	    0.006641	    0.031406	    0.052737	    0.019262	    0.071998	    0.010797	   -0.015731	   -0.004934	    0.014761	    0.015026	    0.029787	   -0.020650	   -0.065893	   -0.086543	    0.060928	    0.010325	    0.071253	    0.028005	    0.008193	    0.036198	    0.007940	   -0.004901	    0.003038	    0.016387	    0.002136	    0.018523	    0.060334	    0.026084	    0.086417	   -0.008407	   -0.007091	   -0.015498	    0.030585	    0.008652	    0.039237	    0.018050	   -0.061166	   -0.043117	    0.065909	    0.012414	    0.078323	   -0.001431	   -0.013310	   -0.014741	    0.005753	   -0.003727	    0.002025	    0.017253	    0.006829	    0.024082	    0.031158	    0.014836	    0.045993	   -0.004749	   -0.024482	   -0.029230
     4.875	0	0	    0	    0.030799	   -0.002839	    0.027960	    0.005137	   -0.002467	    0.002671	    0.003583	   -0.007651	   -0.004068	    0.021929	    0.007969	    0.029898	    0.049268	    0.021462	    0.070731	    0.007908	   -0.013963	   -0.006055	    0.019377	    0.008297	    0.027674	   -0.022720	   -0.066637	   -0.089357	    0.056514	    0.011967	    0.068481	    0.026936	    0.008333	    0.035269	    0.007475	   -0.005108	    0.002368	    0.014620	    0.002629	    0.017248	    0.053643	    0.031105	    0.084748	   -0.011559	   -0.005736	   -0.017296	    0.032440	    0.008434	    0.040874	    0.014660	   -0.060944	   -0.046284	    0.063241	    0.012640	    0.075881	   -0.001644	   -0.014148	   -0.015792	    0.004736	   -0.004050	    0.000686	    0.013936	    0.008689	    0.022625	    0.027302	    0.017245	    0.044547	   -0.001304	   -0.028257	   -0.029560
     4.950	0	0	    0	    0.029924	    0.000118	    0.030042	    0.002280	   -0.001070	    0.001211	   -0.000838	   -0.007639	   -0.008477	    0.020765	    0.008415	    0.029180	    0.050613	    0.016926	    0.067539	    0.003015	   -0.014294	   -0.011280	    0.009409	    0.014435	    0.023844	   -0.025203	   -0.065644	   -0.090846	    0.053856	    0.011430	    0.065287	    0.025537	    0.008163	    0.033700	    0.006006	   -0.004995	    0.001011	    0.013732	    0.002073	    0.015805	    0.054889	    0.026639	    0.081527	   -0.011050	   -0.005448	   -0.016498	    0.029424	    0.009507	    0.038932	    0.013303	   -0.063128	   -0.049825	    0.061270	    0.011508	    0.072778	   -0.003757	   -0.013828	   -0.017585	    0.003217	   -0.004140	   -0.000924	    0.013296	    0.007276	    0.020572	    0.026909	    0.015779	    0.042688	   -0.003669	   -0.025942	   -0.029611
     5.025	0	0	    0	    0.033686	   -0.010122	    0.023564	    0.002230	   -0.002115	    0.000114	   -0.000191	   -0.005230	   -0.005421	    0.020679	    0.006833	    0.027511	    0.046762	    0.018647	    0.065408	    0.006548	   -0.020895	   -0.014347	    0.008515	    0.015866	    0.024380	   -0.024343	   -0.067905	   -0.092248	    0.050206	    0.011246	    0.061452	    0.023479	    0.008615	    0.032095	    0.005854	   -0.005295	    0.000559	    0.012326	    0.001714	    0.014039	    0.051022	    0.028299	    0.079321	   -0.014546	   -0.005094	   -0.019639	    0.032696	    0.005843	    0.038539	    0.008878	   -0.062348	   -0.053470	    0.058113	    0.011054	    0.069167	   -0.003651	   -0.014798	   -0.018449	    0.002572	   -0.004449	   -0.001877	    0.010521	    0.007680	    0.018201	    0.025778	    0.014421	    0.040198	   -0.009193	   -0.025440	   -0.034633
     5.100	0	0	    0	    0.011275	    0.008364	    0.019638	    0.009730	   -0.005586	    0.004144	    0.008093	   -0.008023	    0.000071	    0.019440	    0.009315	    0.028755	    0.046201	    0.021599	    0.067800	    0.015477	   -0.022798	   -0.007322	    0.019980	    0.006642	    0.026621	   -0.026172	   -0.062475	   -0.088647	    0.064076	    0.007699	    0.071775	    0.031430	    0.006638	    0.038068	    0.008677	   -0.005117	    0.003559	    0.014004	    0.000701	    0.014704	    0.055110	    0.027206	    0.082316	   -0.004795	   -0.009462	   -0.014257	    0.024549	    0.015673	    0.040222	    0.025471	   -0.063250	   -0.037780	    0.070377	    0.010656	    0.081033	    0.001606	   -0.014154	   -0.012548	    0.007308	   -0.004042	    0.003265	    0.015224	    0.009164	    0.024388	    0.030624	    0.016874	    0.047498	   -0.006574	   -0.024437	   -0.031011
     5.175	0	0	    0	    0.029195	   -0.000811	    0.028384	    0.009199	    0.000203	    0.009402	    0.006473	   -0.004223	    0.002251	    0.023525	    0.009135	    0.032659	    0.051579	    0.020769	    0.072348	    0.011170	   -0.015091	   -0.003921	    0.011985	    0.016741	    0.028725	   -0.016908	   -0.069481	   -0.086390	    0.070525	    0.015392	    0.085917	    0.034270	    0.009348	    0.043618	    0.010192	   -0.004622	    0.005570	    0.017881	    0.001677	    0.019559	    0.062865	    0.026076	    0.088941	   -0.009929	   -0.004570	   -0.014498	    0.026549	    0.016868	    0.043417	    0.030171	   -0.056541	   -0.026370	    0.077275	    0.015589	    0.092864	    0.003531	   -0.013208	   -0.009677	    0.009545	   -0.003383	    0.006162	    0.020881	    0.009462	    0.030343	    0.033320	    0.017629	    0.050950	   -0.000664	   -0.025774	   -0.026438
     5.250	0	0	    0	    0.035059	   -0.000879	    0.034180	    0.013569	   -0.002621	    0.010948	    0.014660	   -0.008232	    0.006428	    0.025784	    0.009349	    0.035132	    0.054713	    0.019969	    0.074682	    0.016831	   -0.015638	    0.001193	    0.022802	    0.011802	    0.034604	   -0.016366	   -0.067391	   -0.083757	    0.074624	    0.015189	    0.089813	    0.035777	    0.008709	    0.044486	    0.010805	   -0.003960	    0.006845	    0.018866	    0.002451	    0.021318	    0.062158	    0.028465	    0.090623	   -0.004449	   -0.006365	   -0.010814	    0.040706	    0.003548	    0.044254	    0.034627	   -0.058382	   -0.023756	    0.078905	    0.016305	    0.095210	    0.004346	   -0.013177	   -0.008831	    0.010852	   -0.003495	    0.007357	    0.022182	    0.010345	    0.032527	    0.034748	    0.017357	    0.052105	   -0.000236	   -0.023878	   -0.024114
     5.325	0	0	    0	    0.044055	   -0.006679	    0.037375	    0.011016	    0.000398	    0.011415	    0.007748	   -0.002285	    0.005463	    0.026701	    0.009230	    0.035931	    0.053179	    0.022270	    0.075449	    0.012191	   -0.011026	    0.001165	    0.015283	    0.020362	    0.035645	   -0.019875	   -0.063759	   -0.083635	    0.072590	    0.015501	    0.088091	    0.034040	    0.009967	    0.044007	    0.011005	   -0.004285	    0.006720	    0.019017	    0.002479	    0.021496	    0.064237	    0.025603	    0.089839	   -0.012741	    0.003562	   -0.009179	    0.036891	    0.007972	    0.044863	    0.032187	   -0.059010	   -0.026823	    0.076946	    0.016232	    0.093178	    0.003815	   -0.013362	   -0.009547	    0.009898	   -0.003152	    0.006745	    0.022289	    0.009361	    0.031650	    0.035750	    0.016336	    0.052086	   -0.002630	   -0.021187	   -0.023817
     5.400	0	0	    0	    0.030323	    0.000568	    0.030890	    0.012003	   -0.001482	    0.010521	    0.006160	   -0.001783	    0.004377	    0.027256	    0.008387	    0.035644	    0.053124	    0.021018	    0.074142	    0.015395	   -0.015637	   -0.000242	    0.022775	    0.008353	    0.031129	   -0.017799	   -0.065373	   -0.083173	    0.073459	    0.013138	    0.086597	    0.034936	    0.008232	    0.043168	    0.010474	   -0.003823	    0.006651	    0.018371	    0.002385	    0.020755	    0.061158	    0.028269	    0.089426	   -0.007024	   -0.006660	   -0.013684	    0.033076	    0.007920	    0.040996	    0.031962	   -0.058173	   -0.026211	    0.077404	    0.015066	    0.092470	    0.003936	   -0.013628	   -0.009692	    0.010340	   -0.003788	    0.006552	    0.022098	    0.009087	    0.031185	    0.033871	    0.016547	    0.050417	    0.001386	   -0.027286	   -0.025899
     5.475	0	0	    0	    0.036789	   -0.013141	    0.023649	    0.009584	    0.001022	    0.010606	    0.003625	   -0.004205	   -0.000580	    0.025690	    0.007987	    0.033677	    0.052913	    0.018127	    0.071040	    0.007663	   -0.012505	   -0.004842	    0.006163	    0.018589	    0.024752	   -0.018209	   -0.065657	   -0.083866	    0.071568	    0.014974	    0.086542	    0.033633	    0.008547	    0.042180	    0.010720	   -0.004232	    0.006488	    0.018492	    0.001990	    0.020483	    0.062409	    0.025122	    0.087531	   -0.008790	   -0.004810	   -0.013601	    0.037199	    0.005479	    0.042677	    0.030941	   -0.057803	   -0.026862	    0.076831	    0.014373	    0.091204	    0.003051	   -0.013663	   -0.010612	    0.009636	   -0.003625	    0.006011	    0.022149	    0.008474	    0.030623	    0.033344	    0.016512	    0.049856	   -0.001480	   -0.025104	   -0.026584
     5.550	0	0	    0	    0.035230	   -0.009343	    0.025887	    0.013531	   -0.004714	    0.008817	    0.010576	   -0.008757	    0.001819	    0.026983	    0.007719	    0.034702	    0.053479	    0.017700	    0.071179	    0.012046	   -0.017372	   -0.005326	    0.012292	    0.013521	    0.025812	   -0.017689	   -0.064923	   -0.082611	    0.069073	    0.015852	    0.084925	    0.032646	    0.008734	    0.041380	    0.010984	   -0.004536	    0.006449	    0.018104	    0.001591	    0.019695	    0.059868	    0.026673	    0.086541	   -0.009231	   -0.004913	   -0.014144	    0.027914	    0.012479	    0.040393	    0.028272	   -0.057157	   -0.028885	    0.075209	    0.013687	    0.088896	    0.002168	   -0.013577	   -0.011409	    0.009137	   -0.004056	    0.005081	    0.021600	    0.007011	    0.028612	    0.033396	    0.015638	    0.049034	   -0.005696	   -0.022384	   -0.028080
     5.625	0	0	    0	    0.039677	   -0.006720	    0.032957	    0.012247	   -0.001917	    0.010330	    0.008925	   -0.007244	    0.001681	    0.024987	    0.010122	    0.035109	    0.052043	    0.018895	    0.070937	    0.016804	   -0.020293	   -0.003489	    0.027858	    0.003482	    0.031340	   -0.017391	   -0.066287	   -0.083678	    0.068120	    0.014933	    0.083053	    0.032445	    0.007605	    0.040050	    0.010963	   -0.004709	    0.006254	    0.017246	    0.001337	    0.018583	    0.059159	    0.027164	    0.086322	   -0.010260	   -0.003230	   -0.013490	    0.036726	    0.006983	    0.043709	    0.027464	   -0.059077	   -0.031613	    0.073017	    0.013464	    0.086481	    0.001698	   -0.014153	   -0.012455	    0.008550	   -0.004466	    0.004084	    0.019293	    0.007703	    0.026996	    0.030122	    0.018119	    0.048241	   -0.003727	   -0.023516	   -0.027243
     5.700	0	0	    0	    0.038066	   -0.004689	    0.033377	    0.012759	   -0.004749	    0.008010	    0.013015	   -0.013577	   -0.000562	    0.023451	    0.010015	    0.033466	    0.050961	    0.019952	    0.070914	    0.017526	   -0.023620	   -0.006094	    0.035083	   -0.005215	    0.029868	   -0.019692	   -0.064375	   -0.084067	    0.065966	    0.014340	    0.080306	    0.031203	    0.006847	    0.038050	    0.009492	   -0.003955	    0.005537	    0.015895	    0.001739	    0.017634	    0.057782	    0.026843	    0.084625	   -0.007038	   -0.008898	   -0.015935	    0.027830	    0.016246	    0.044075	    0.025055	   -0.059052	   -0.033997	    0.070538	    0.012607	    0.083145	    0.000504	   -0.014382	   -0.013877	    0.007134	   -0.004474	    0.002659	    0.019112	    0.006342	    0.025454	    0.030644	    0.015979	    0.046623	   -0.002642	   -0.026353	   -0.028995
     5.775	0	0	    0	    0.030598	   -0.000749	    0.029849	    0.009396	   -0.003015	    0.006381	    0.007949	   -0.010440	   -0.002491	    0.023088	    0.009223	    0.032312	    0.048305	    0.019515	    0.067820	    0.012451	   -0.023094	   -0.010643	    0.026080	   -0.001796	    0.024284	   -0.020797	   -0.065734	   -0.086532	    0.062459	    0.013432	    0.075891	    0.029607	    0.006878	    0.036486	    0.008675	   -0.003803	    0.004872	    0.015154	    0.001440	    0.016594	    0.054937	    0.027300	    0.082237	   -0.011672	   -0.007163	   -0.018834	    0.024971	    0.013659	    0.038630	    0.021864	   -0.059324	   -0.037460	    0.068155	    0.011969	    0.080123	   -0.000524	   -0.014652	   -0.015177	    0.005895	   -0.004629	    0.001265	    0.016751	    0.006844	    0.023595	    0.029951	    0.015210	    0.045161	   -0.009819	   -0.020394	   -0.030213
     5.850	0	0	    0	    0.031709	   -0.005804	    0.025905	    0.006845	   -0.001498	    0.005347	    0.003921	   -0.007787	   -0.003866	    0.022962	    0.009039	    0.032001	    0.048116	    0.019163	    0.067279	    0.008495	   -0.019950	   -0.011456	    0.011952	    0.008826	    0.020778	   -0.021764	   -0.066289	   -0.088053	    0.060001	    0.013149	    0.073151	    0.027985	    0.006759	    0.034744	    0.009332	   -0.005064	    0.004268	    0.013893	    0.001400	    0.015293	    0.053657	    0.026537	    0.080194	   -0.011660	   -0.009333	   -0.020993	    0.031392	    0.009122	    0.040514	    0.019455	   -0.059937	   -0.040482	    0.065882	    0.011104	    0.076986	   -0.001275	   -0.015040	   -0.016315	    0.005141	   -0.004760	    0.000381	    0.015494	    0.006517	    0.022012	    0.029018	    0.013838	    0.042856	   -0.001031	   -0.030072	   -0.031103
     5.925	0	0	    0	    0.028391	   -0.000693	    0.027699	    0.007746	   -0.002415	    0.005331	    0.002383	   -0.004951	   -0.002568	    0.022763	    0.008496	    0.031260	    0.046021	    0.020198	    0.066218	    0.005199	   -0.018066	   -0.012867	    0.006845	    0.013693	    0.020538	   -0.023893	   -0.064372	   -0.088265	    0.058231	    0.012868	    0.071099	    0.026947	    0.006930	    0.033877	    0.008045	   -0.004707	    0.003338	    0.013142	    0.000912	    0.014054	    0.051419	    0.027252	    0.078672	   -0.014764	   -0.005710	   -0.020473	    0.031492	    0.005936	    0.037428	    0.017321	   -0.059870	   -0.042548	    0.063715	    0.010932	    0.074647	   -0.002721	   -0.015028	   -0.017749	    0.003773	   -0.004819	   -0.001046	    0.013423	    0.007096	    0.020519	    0.026098	    0.015738	    0.041836	   -0.009728	   -0.024542	   -0.034270
     6.000	0	0	    0	    0.039274	   -0.004366	    0.034908	    0.004072	    0.000784	    0.004856	    0.002535	   -0.005473	   -0.002938	    0.020746	    0.009586	    0.030332	    0.045391	    0.019807	    0.065198	   -0.003584	   -0.010108	   -0.013692	    0.004933	    0.017402	    0.022335	   -0.023240	   -0.066384	   -0.089624	    0.056526	    0.011250	    0.067776	    0.024854	    0.007154	    0.032008	    0.006470	   -0.004128	    0.002341	    0.011926	    0.000942	    0.012868	    0.052496	    0.023361	    0.075857	   -0.023826	   -0.003516	   -0.027342	    0.015985	    0.022903	    0.038889	    0.014711	   -0.061671	   -0.046960	    0.061963	    0.009428	    0.071391	   -0.003361	   -0.015616	   -0.018977	    0.002372	   -0.004811	   -0.002439	    0.012177	    0.005714	    0.017891	    0.025487	    0.012917	    0.038404	   -0.011124	   -0.026024	   -0.037148
     6.075	0	0	    0	    0.020653	    0.011844	    0.032497	    0.012525	   -0.004767	    0.007758	    0.010238	   -0.010061	    0.000177	    0.020950	    0.009425	    0.030375	    0.046996	    0.020237	    0.067232	    0.014106	   -0.024540	   -0.010434	    0.029459	   -0.004950	    0.024509	   -0.024436	   -0.063098	   -0.087534	    0.064704	    0.009099	    0.073803	    0.031603	    0.004771	    0.036373	    0.009732	   -0.004896	    0.004836	    0.012473	    0.000013	    0.012486	    0.055073	    0.022186	    0.077259	   -0.010040	   -0.012560	   -0.022600	    0.027415	    0.013601	    0.041016	    0.027543	   -0.063087	   -0.035544	    0.071514	    0.007414	    0.078929	    0.002047	   -0.015898	   -0.013851	    0.007611	   -0.005459	    0.002152	    0.016898	    0.005167	    0.022064	    0.030067	    0.012498	    0.042566	   -0.005367	   -0.026968	   -0.032335
     6.150	0	0	    0	    0.019310	    0.008072	    0.027382	    0.011619	   -0.000879	    0.010740	    0.015163	   -0.010665	    0.004498	    0.024237	    0.009479	    0.033716	    0.049993	    0.019275	    0.069268	    0.008506	   -0.017659	   -0.009153	    0.019963	    0.009025	    0.028988	   -0.018874	   -0.065006	   -0.083879	    0.074159	    0.013136	    0.087294	    0.035562	    0.006045	    0.041608	    0.010987	   -0.004217	    0.006770	    0.016998	    0.000117	    0.017115	    0.056767	    0.025160	    0.081927	   -0.012591	   -0.006432	   -0.019023	    0.033412	    0.010292	    0.043704	    0.033427	   -0.056576	   -0.023149	    0.078487	    0.013493	    0.091981	    0.003634	   -0.014491	   -0.010856	    0.009853	   -0.004750	    0.005104	    0.021087	    0.006785	    0.027872	    0.031862	    0.015218	    0.047080	   -0.005093	   -0.027078	   -0.032170
     6.225	0	0	    0	    0.019155	    0.010990	    0.030144	    0.013755	   -0.001139	    0.012616	    0.009149	   -0.003109	    0.006040	    0.025407	    0.010742	    0.036149	    0.048611	    0.024489	    0.073100	    0.006902	   -0.008507	   -0.001605	    0.011891	    0.020510	    0.032401	   -0.021224	   -0.062630	   -0.083854	    0.075566	    0.014881	    0.090447	    0.034828	    0.007832	    0.042660	    0.011925	   -0.004098	    0.007828	    0.017865	    0.001134	    0.018999	    0.061020	    0.023910	    0.084930	   -0.013302	   -0.003839	   -0.017140	    0.028361	    0.015891	    0.044252	    0.035912	   -0.057614	   -0.021703	    0.081466	    0.012976	    0.094442	    0.004308	   -0.014205	   -0.009898	    0.010710	   -0.004227	    0.006483	    0.023113	    0.006888	    0.030001	    0.032627	    0.015645	    0.048273	   -0.006171	   -0.022193	   -0.028364
     6.300	0	0	    0	    0.019536	    0.005966	    0.025501	    0.011887	    0.000174	    0.012061	    0.005369	    0.000999	    0.006368	    0.024662	    0.011342	    0.036005	    0.050116	    0.021343	    0.071459	    0.007532	   -0.009343	   -0.001811	    0.003250	    0.028456	    0.031707	   -0.022986	   -0.060794	   -0.083780	    0.073656	    0.016062	    0.089718	    0.032967	    0.008527	    0.041495	    0.011412	   -0.003703	    0.007709	    0.018042	    0.001497	    0.019539	    0.058807	    0.026013	    0.084820	   -0.018509	    0.000735	   -0.017774	    0.027259	    0.017265	    0.044523	    0.032608	   -0.055725	   -0.023117	    0.079854	    0.013322	    0.093176	    0.004037	   -0.014270	   -0.010232	    0.010225	   -0.004230	    0.005995	    0.022570	    0.007108	    0.029678	    0.033797	    0.013467	    0.047264	   -0.006912	   -0.023617	   -0.030529
     6.375	0	0	    0	    0.035753	   -0.001763	    0.033990	    0.015128	   -0.002377	    0.012751	    0.012960	   -0.007879	    0.005081	    0.025108	    0.010308	    0.035416	    0.053009	    0.018305	    0.071314	    0.014735	   -0.023060	   -0.008325	    0.033290	   -0.003708	    0.029583	   -0.017979	   -0.064547	   -0.082526	    0.074247	    0.015438	    0.089685	    0.034794	    0.005989	    0.040783	    0.010656	   -0.003856	    0.006800	    0.018148	    0.000811	    0.018960	    0.059230	    0.024572	    0.083803	   -0.008352	   -0.011298	   -0.019650	    0.024817	    0.017312	    0.042129	    0.034596	   -0.058875	   -0.024279	    0.079557	    0.012626	    0.092183	    0.004784	   -0.014864	   -0.010080	    0.010569	   -0.004622	    0.005947	    0.023094	    0.005728	    0.028822	    0.033467	    0.014092	    0.047558	   -0.010216	   -0.020576	   -0.030792
     6.450	0	0	    0	    0.040799	   -0.015465	    0.025333	    0.013804	   -0.003226	    0.010578	    0.012079	   -0.006470	    0.005609	    0.028189	    0.007796	    0.035985	    0.051320	    0.021084	    0.072405	    0.013277	   -0.015362	   -0.002085	    0.027950	    0.003862	    0.031812	   -0.015367	   -0.066664	   -0.082031	    0.073276	    0.013785	    0.087062	    0.033677	    0.006512	    0.040189	    0.012096	   -0.005131	    0.006966	    0.017897	    0.000996	    0.018893	    0.058768	    0.025157	    0.083926	   -0.016611	   -0.000735	   -0.017346	    0.029482	    0.014906	    0.044388	    0.033188	   -0.057075	   -0.023888	    0.079291	    0.012192	    0.091483	    0.004366	   -0.014793	   -0.010427	    0.010718	   -0.005036	    0.005682	    0.022972	    0.005774	    0.028746	    0.033418	    0.012896	    0.046314	    0.000664	   -0.029388	   -0.028724
     6.525	0	0	    0	    0.018268	    0.008478	    0.026746	    0.014161	   -0.004509	    0.009651	    0.007916	   -0.005722	    0.002194	    0.026431	    0.007623	    0.034054	    0.053031	    0.015765	    0.068796	    0.011964	   -0.022508	   -0.010544	    0.021549	    0.001213	    0.022762	   -0.019705	   -0.064552	   -0.084256	    0.073232	    0.011909	    0.085141	    0.032479	    0.006144	    0.038622	    0.010891	   -0.004214	    0.006677	    0.017736	    0.000306	    0.018042	    0.060174	    0.021686	    0.081860	   -0.008949	   -0.009658	   -0.018607	    0.027843	    0.011978	    0.039820	    0.032513	   -0.059585	   -0.027072	    0.078200	    0.010713	    0.088913	    0.002960	   -0.014627	   -0.011668	    0.009804	   -0.005049	    0.004754	    0.022868	    0.003952	    0.026820	    0.033590	    0.011306	    0.044896	   -0.007993	   -0.022154	   -0.030147
     6.600	0	0	    0	    0.040947	   -0.014758	    0.026189	    0.010131	   -0.001315	    0.008816	    0.008365	   -0.003063	    0.005302	    0.027665	    0.007999	    0.035664	    0.052050	    0.016993	    0.069043	    0.013572	   -0.022203	   -0.008631	    0.017982	    0.010875	    0.028857	   -0.018465	   -0.065919	   -0.084384	    0.070041	    0.013522	    0.083563	    0.031995	    0.005532	    0.037527	    0.010445	   -0.003678	    0.006767	    0.017476	    0.000055	    0.017532	    0.057758	    0.024455	    0.082212	   -0.013899	   -0.004435	   -0.018335	    0.028815	    0.014639	    0.043454	    0.029489	   -0.059121	   -0.029633	    0.075467	    0.011067	    0.086535	    0.002621	   -0.015226	   -0.012605	    0.008979	   -0.005040	    0.003940	    0.020463	    0.005382	    0.025846	    0.030998	    0.013816	    0.044814	    0.000048	   -0.029823	   -0.029775
     6.675	0	0	    0	    0.032630	    0.001289	    0.033919	    0.009519	   -0.001182	    0.008337	    0.008628	   -0.007779	    0.000849	    0.026929	    0.008128	    0.035057	    0.052033	    0.017634	    0.069667	    0.011054	   -0.020803	   -0.009749	    0.015208	    0.012586	    0.027794	   -0.017974	   -0.066733	   -0.084706	    0.067870	    0.012560	    0.080430	    0.030288	    0.005770	    0.036058	    0.010775	   -0.004487	    0.006288	    0.016834	   -0.000202	    0.016633	    0.055070	    0.025644	    0.080715	   -0.012770	   -0.007975	   -0.020745	    0.028650	    0.013246	    0.041896	    0.025375	   -0.058049	   -0.032675	    0.073720	    0.010015	    0.083735	    0.001713	   -0.015531	   -0.013819	    0.008249	   -0.005485	    0.002765	    0.018824	    0.004861	    0.023685	    0.029843	    0.013493	    0.043336	   -0.003945	   -0.027197	   -0.031142
     6.750	0	0	    0	    0.039166	   -0.007920	    0.031246	    0.010527	   -0.003469	    0.007059	    0.008657	   -0.009555	   -0.000898	    0.024848	    0.009166	    0.034015	    0.050507	    0.018648	    0.069155	    0.012035	   -0.019679	   -0.007644	    0.027859	   -0.003107	    0.024752	   -0.019742	   -0.068654	   -0.088396	    0.067188	    0.010900	    0.078089	    0.030115	    0.004801	    0.034915	    0.010210	   -0.004664	    0.005546	    0.015679	   -0.000094	    0.015585	    0.055187	    0.023654	    0.078841	   -0.017456	   -0.004402	   -0.021858	    0.033036	    0.008195	    0.041231	    0.025924	   -0.062156	   -0.036232	    0.072316	    0.008957	    0.081274	    0.001545	   -0.016004	   -0.014459	    0.007508	   -0.005580	    0.001928	    0.018126	    0.003798	    0.021924	    0.029052	    0.012620	    0.041672	   -0.009059	   -0.026512	   -0.035571
     6.825	0	0	    0	    0.029158	    0.003856	    0.033014	    0.007291	    0.000891	    0.008182	    0.005674	   -0.003839	    0.001835	    0.022555	    0.011370	    0.033925	    0.045903	    0.020664	    0.066567	    0.005995	   -0.018560	   -0.012565	    0.013064	    0.012618	    0.025682	   -0.023080	   -0.064999	   -0.088079	    0.061473	    0.014973	    0.076446	    0.028505	    0.005556	    0.034062	    0.008947	   -0.004621	    0.004326	    0.014567	    0.000200	    0.014768	    0.051035	    0.025722	    0.076756	   -0.016250	   -0.004329	   -0.020579	    0.024828	    0.012657	    0.037485	    0.021539	   -0.059808	   -0.038269	    0.070019	    0.009543	    0.079562	    0.001002	   -0.016023	   -0.015021	    0.006754	   -0.005509	    0.001244	    0.016114	    0.004796	    0.020910	    0.025895	    0.016063	    0.041958	   -0.011607	   -0.022433	   -0.034039
     6.900	0	0	    0	    0.019599	    0.012254	    0.031853	    0.007697	   -0.001271	    0.006426	    0.003520	   -0.005540	   -0.002020	    0.020706	    0.012004	    0.032710	    0.043042	    0.022411	    0.065453	    0.002520	   -0.018857	   -0.016337	    0.013538	    0.006789	    0.020326	   -0.026827	   -0.063205	   -0.090033	    0.061032	    0.012330	    0.073362	    0.027273	    0.005248	    0.032521	    0.007431	   -0.004485	    0.002946	    0.013622	    0.000055	    0.013676	    0.053823	    0.021058	    0.074881	   -0.017146	   -0.006834	   -0.023980	    0.023519	    0.012127	    0.035645	    0.020704	   -0.062010	   -0.041306	    0.069355	    0.008049	    0.077404	   -0.000125	   -0.015743	   -0.015869	    0.005827	   -0.005288	    0.000539	    0.015582	    0.003357	    0.018939	    0.026328	    0.013667	    0.039996	   -0.010998	   -0.023700	   -0.034698
     6.975	0	0	    0	    0.017753	    0.006440	    0.024193	    0.004445	   -0.000156	    0.004289	    0.000836	   -0.003357	   -0.002521	    0.021808	    0.009251	    0.031060	    0.044927	    0.021889	    0.066816	   -0.006532	   -0.008160	   -0.014691	    0.002320	    0.019876	    0.022196	   -0.027500	   -0.065650	   -0.093150	    0.059508	    0.010694	    0.070202	    0.025801	    0.006067	    0.031869	    0.006657	   -0.004324	    0.002332	    0.012868	    0.000349	    0.013217	    0.051148	    0.022348	    0.073495	   -0.020719	   -0.005807	   -0.026526	    0.019630	    0.016293	    0.035923	    0.017743	   -0.062564	   -0.044821	    0.067042	    0.008061	    0.075103	   -0.000510	   -0.016212	   -0.016721	    0.004840	   -0.005377	   -0.000538	    0.013736	    0.003635	    0.017371	    0.023688	    0.014369	    0.038056	   -0.016375	   -0.021901	   -0.038276
     7.050	0	0	    0	    0.029348	    0.001755	    0.031104	    0.007370	   -0.000855	    0.006515	    0.002368	    0.001451	    0.003819	    0.021396	    0.010340	    0.031736	    0.046017	    0.021463	    0.067480	    0.002801	   -0.012286	   -0.009485	   -0.001188	    0.031154	    0.029966	   -0.022505	   -0.068083	   -0.090589	    0.064614	    0.007372	    0.071986	    0.029990	    0.004135	    0.034124	    0.009876	   -0.005959	    0.003917	    0.013212	   -0.000819	    0.012393	    0.051959	    0.020864	    0.072823	   -0.013329	   -0.007326	   -0.020655	    0.038706	    0.002911	    0.041617	    0.026432	   -0.065441	   -0.039009	    0.073459	    0.004789	    0.078247	    0.004279	   -0.016802	   -0.012522	    0.009567	   -0.006538	    0.003029	    0.016746	    0.001745	    0.018491	    0.028568	    0.011799	    0.040367	   -0.001453	   -0.029217	   -0.030671
     7.125	0	0	    0	    0.035059	   -0.000879	    0.034180	    0.012793	   -0.000302	    0.012491	    0.009614	   -0.003429	    0.006185	    0.025672	    0.008692	    0.034365	    0.052185	    0.019047	    0.071233	    0.010682	   -0.016825	   -0.006144	    0.021949	    0.009507	    0.031455	   -0.019343	   -0.066200	   -0.085543	    0.077300	    0.013998	    0.091298	    0.036578	    0.006449	    0.043028	    0.011164	   -0.004862	    0.006302	    0.018337	   -0.000681	    0.017656	    0.056397	    0.025111	    0.081508	   -0.011319	   -0.007304	   -0.018623	    0.035684	    0.008060	    0.043744	    0.035899	   -0.057040	   -0.021140	    0.084829	    0.011111	    0.095940	    0.008584	   -0.015413	   -0.006829	    0.013339	   -0.005240	    0.008099	    0.023081	    0.005144	    0.028225	    0.032409	    0.013546	    0.045955	   -0.006507	   -0.023091	   -0.029598
     7.200	0	0	    0	    0.023884	    0.005907	    0.029791	    0.016136	   -0.003120	    0.013016	    0.011175	   -0.007689	    0.003486	    0.025791	    0.011064	    0.036855	    0.048652	    0.024471	    0.073123	    0.013945	   -0.020274	   -0.006330	    0.027253	   -0.004847	    0.022407	   -0.024001	   -0.062279	   -0.086280	    0.080438	    0.015110	    0.095549	    0.038541	    0.005951	    0.044493	    0.012707	   -0.004703	    0.008004	    0.020144	    0.000682	    0.020826	    0.060343	    0.023112	    0.083455	   -0.011361	   -0.006307	   -0.017668	    0.031562	    0.006039	    0.037601	    0.038127	   -0.055682	   -0.017554	    0.088569	    0.012337	    0.100906	    0.010341	   -0.014910	   -0.004569	    0.015778	   -0.004961	    0.010817	    0.026767	    0.004827	    0.031595	    0.033320	    0.015065	    0.048385	   -0.003473	   -0.027386	   -0.030859
     7.275	0	0	    0	    0.025049	    0.002619	    0.027667	    0.014820	   -0.000816	    0.014004	    0.012864	   -0.003601	    0.009263	    0.028560	    0.010777	    0.039337	    0.051696	    0.020299	    0.071995	    0.009093	   -0.019455	   -0.010362	    0.016414	    0.009485	    0.025899	   -0.017311	   -0.067383	   -0.084694	    0.083377	    0.015252	    0.098629	    0.039719	    0.006212	    0.045930	    0.013864	   -0.004290	    0.009574	    0.022565	    0.000553	    0.023117	    0.063427	    0.021513	    0.084939	   -0.008387	   -0.008142	   -0.016529	    0.025756	    0.015580	    0.041335	    0.040132	   -0.056107	   -0.015975	    0.089926	    0.013791	    0.103718	    0.010634	   -0.014069	   -0.003435	    0.016229	   -0.004091	    0.012138	    0.028308	    0.005550	    0.033858	    0.034049	    0.014938	    0.048987	   -0.003527	   -0.024970	   -0.028497
     7.350	0	0	    0	    0.041628	   -0.012878	    0.028750	    0.016880	   -0.002383	    0.014497	    0.016653	   -0.007716	    0.008938	    0.029348	    0.010708	    0.040056	    0.056113	    0.018559	    0.074672	    0.020201	   -0.023969	   -0.003768	    0.017367	    0.012548	    0.029916	   -0.017865	   -0.067478	   -0.085343	    0.081535	    0.015666	    0.097201	    0.039825	    0.005602	    0.045427	    0.014893	   -0.004747	    0.010146	    0.023147	    0.000340	    0.023487	    0.061841	    0.023299	    0.085139	   -0.007434	   -0.005570	   -0.013004	    0.037594	    0.003484	    0.041078	    0.038439	   -0.057616	   -0.019177	    0.089674	    0.012485	    0.102159	    0.011888	   -0.014920	   -0.003031	    0.017793	   -0.004996	    0.012797	    0.028070	    0.005140	    0.033210	    0.032955	    0.016492	    0.049447	   -0.005149	   -0.023294	   -0.028443
     7.425	0	0	    0	    0.038570	   -0.003474	    0.035095	    0.016360	   -0.001887	    0.014473	    0.013533	   -0.003536	    0.009997	    0.029647	    0.011380	    0.041027	    0.059384	    0.017277	    0.076661	    0.017013	   -0.017653	   -0.000639	    0.029369	    0.004712	    0.034081	   -0.018791	   -0.066104	   -0.084894	    0.082124	    0.015460	    0.097584	    0.039988	    0.005983	    0.045970	    0.015680	   -0.004622	    0.011057	    0.023600	   -0.000020	    0.023580	    0.061246	    0.024835	    0.086081	   -0.010144	   -0.004052	   -0.014196	    0.042295	    0.003942	    0.046237	    0.038043	   -0.057301	   -0.019258	    0.090856	    0.012168	    0.103024	    0.012311	   -0.014469	   -0.002158	    0.018645	   -0.004942	    0.013703	    0.028112	    0.005661	    0.033773	    0.033873	    0.015507	    0.049380	   -0.000060	   -0.027046	   -0.027106
     7.500	0	0	    0	    0.039517	    0.001857	    0.041374	    0.015163	   -0.000264	    0.014900	    0.014198	   -0.006461	    0.007737	    0.031205	    0.009754	    0.040960	    0.055993	    0.020952	    0.076944	    0.019640	   -0.018534	    0.001106	    0.020544	    0.012104	    0.032648	   -0.019979	   -0.065199	   -0.085179	    0.079584	    0.017293	    0.096877	    0.038530	    0.006806	    0.045336	    0.015252	   -0.003856	    0.011396	    0.024219	   -0.000042	    0.024177	    0.061276	    0.024713	    0.085989	   -0.007633	   -0.004995	   -0.012628	    0.036534	    0.008907	    0.045441	    0.035101	   -0.056588	   -0.021487	    0.089956	    0.011407	    0.101363	    0.012265	   -0.014558	   -0.002293	    0.018823	   -0.004881	    0.013942	    0.028131	    0.005117	    0.033248	    0.034606	    0.014175	    0.048781	   -0.006034	   -0.021210	   -0.027243
     7.575	0	0	    0	    0.027131	    0.005461	    0.032592	    0.014135	   -0.001292	    0.012844	    0.014142	   -0.008750	    0.005392	    0.030083	    0.011053	    0.041137	    0.053864	    0.021366	    0.075230	    0.019407	   -0.026505	   -0.007098	    0.020767	    0.005728	    0.026495	   -0.021798	   -0.063084	   -0.084882	    0.077369	    0.017167	    0.094536	    0.039323	    0.004751	    0.044074	    0.014500	   -0.002498	    0.012002	    0.023845	   -0.000021	    0.023824	    0.060415	    0.024740	    0.085155	   -0.008003	   -0.002644	   -0.010647	    0.020771	    0.021288	    0.042059	    0.034867	   -0.058356	   -0.023489	    0.088180	    0.010726	    0.098906	    0.011269	   -0.014423	   -0.003155	    0.018161	   -0.004430	    0.013730	    0.028118	    0.003784	    0.031902	    0.033854	    0.014711	    0.048566	   -0.007327	   -0.020352	   -0.027679
     7.650	0	0	    0	    0.042132	   -0.001402	    0.040730	    0.013651	   -0.000420	    0.013231	    0.011067	   -0.007906	    0.003162	    0.030966	    0.010396	    0.041363	    0.059781	    0.017754	    0.077536	    0.009480	   -0.014202	   -0.004722	    0.013660	    0.014398	    0.028058	   -0.018285	   -0.068912	   -0.087197	    0.077683	    0.015224	    0.092907	    0.037940	    0.005583	    0.043523	    0.015784	   -0.002970	    0.012814	    0.024176	   -0.000049	    0.024127	    0.061512	    0.024102	    0.085614	   -0.007959	   -0.003656	   -0.011616	    0.027993	    0.018048	    0.046040	    0.032729	   -0.058692	   -0.025963	    0.086984	    0.010039	    0.097023	    0.011316	   -0.014716	   -0.003400	    0.018133	   -0.004606	    0.013527	    0.026711	    0.003724	    0.030435	    0.033630	    0.015114	    0.048744	   -0.004403	   -0.021867	   -0.026270
     7.725	0	0	    0	    0.007979	    0.021483	    0.029462	    0.013963	   -0.002431	    0.011532	    0.006570	   -0.004064	    0.002506	    0.027922	    0.012282	    0.040203	    0.050064	    0.026497	    0.076561	    0.014055	   -0.022788	   -0.008733	    0.021574	    0.004595	    0.026169	   -0.020534	   -0.066457	   -0.086992	    0.076424	    0.013774	    0.090198	    0.037926	    0.004824	    0.042749	    0.015475	   -0.002691	    0.012784	    0.023745	   -0.000203	    0.023542	    0.061798	    0.022716	    0.084514	   -0.008369	   -0.008088	   -0.016457	    0.027080	    0.016119	    0.043199	    0.030583	   -0.059570	   -0.028987	    0.085097	    0.009229	    0.094325	    0.011242	   -0.015038	   -0.003796	    0.017844	   -0.004809	    0.013034	    0.027151	    0.002170	    0.029321	    0.034175	    0.012409	    0.046584	   -0.008728	   -0.023576	   -0.032304
     7.800	0	0	    0	    0.015778	    0.014344	    0.030122	    0.010766	   -0.000139	    0.010628	    0.009355	   -0.005772	    0.003583	    0.028052	    0.012231	    0.040283	    0.052873	    0.023895	    0.076769	    0.011117	   -0.017961	   -0.006844	    0.011896	    0.015699	    0.027595	   -0.021720	   -0.067902	   -0.089622	    0.075603	    0.012426	    0.088030	    0.036078	    0.006486	    0.042564	    0.015492	   -0.002298	    0.013193	    0.022912	    0.000155	    0.023068	    0.062247	    0.023223	    0.085470	   -0.008862	   -0.004997	   -0.013860	    0.023927	    0.021009	    0.044936	    0.028940	   -0.060493	   -0.031553	    0.084843	    0.008160	    0.093003	    0.010983	   -0.014934	   -0.003951	    0.017455	   -0.004818	    0.012638	    0.027069	    0.001747	    0.028815	    0.032477	    0.013636	    0.046113	   -0.013125	   -0.017702	   -0.030827
     7.875	0	0	    0	    0.028864	   -0.003075	    0.025789	    0.009333	   -0.000311	    0.009021	    0.006814	   -0.004359	    0.002455	    0.029853	    0.009258	    0.039111	    0.057249	    0.017702	    0.074951	    0.004920	   -0.014303	   -0.009382	    0.000589	    0.025475	    0.026064	   -0.019640	   -0.070330	   -0.089970	    0.072147	    0.013308	    0.085455	    0.036291	    0.005716	    0.042007	    0.016336	   -0.003116	    0.013220	    0.022921	   -0.000320	    0.022601	    0.059583	    0.024377	    0.083960	   -0.014553	    0.002996	   -0.011557	    0.040258	    0.000068	    0.040326	    0.026127	   -0.060348	   -0.034222	    0.082807	    0.007344	    0.090151	    0.010380	   -0.015031	   -0.004651	    0.016947	   -0.005189	    0.011758	    0.024236	    0.003325	    0.027561	    0.029950	    0.016727	    0.046677	   -0.005561	   -0.023470	   -0.029031
     7.950	0	0	    0	    0.039598	   -0.013024	    0.026575	    0.008472	   -0.000713	    0.007760	    0.005120	    0.000092	    0.005212	    0.029202	    0.010998	    0.040201	    0.059595	    0.016988	    0.076583	    0.009272	   -0.016829	   -0.007557	    0.010168	    0.013543	    0.023710	   -0.021555	   -0.068890	   -0.090445	    0.072324	    0.011275	    0.083599	    0.034954	    0.006690	    0.041644	    0.015880	   -0.002409	    0.013470	    0.022862	   -0.000825	    0.022037	    0.061641	    0.024053	    0.085694	   -0.011189	   -0.005822	   -0.017011	    0.034919	    0.006521	    0.041440	    0.024642	   -0.061039	   -0.036397	    0.080026	    0.007601	    0.087627	    0.009417	   -0.014861	   -0.005444	    0.015727	   -0.005055	    0.010673	    0.023851	    0.002788	    0.026640	    0.029568	    0.014757	    0.044325	   -0.009866	   -0.023463	   -0.033329
     8.025	0	0	    0	    0.025618	    0.004625	    0.030243	    0.008054	    0.000935	    0.008989	    0.006298	   -0.003427	    0.002870	    0.028906	    0.009078	    0.037984	    0.055130	    0.021077	    0.076208	    0.010806	   -0.021654	   -0.010848	    0.011036	    0.016882	    0.027918	   -0.025099	   -0.068888	   -0.093986	    0.067797	    0.012706	    0.080503	    0.034730	    0.005612	    0.040342	    0.014389	   -0.001729	    0.012660	    0.021655	   -0.000303	    0.021351	    0.058032	    0.026037	    0.084069	   -0.017170	   -0.000085	   -0.017254	    0.028578	    0.012743	    0.041321	    0.021235	   -0.061792	   -0.040557	    0.077843	    0.006377	    0.084220	    0.008952	   -0.015337	   -0.006385	    0.014556	   -0.005014	    0.009542	    0.021873	    0.002700	    0.024574	    0.028583	    0.014251	    0.042835	   -0.005228	   -0.026343	   -0.031571
     8.100	0	0	    0	    0.037151	   -0.015413	    0.021738	    0.011032	   -0.002410	    0.008623	    0.009543	   -0.003931	    0.005612	    0.028761	    0.009838	    0.038599	    0.060037	    0.015523	    0.075561	    0.009515	   -0.015965	   -0.006450	    0.006993	    0.021982	    0.028975	   -0.021365	   -0.070708	   -0.092073	    0.072601	    0.009209	    0.081810	    0.038327	    0.005349	    0.043677	    0.017266	   -0.002582	    0.014684	    0.021426	   -0.000631	    0.020796	    0.058442	    0.025062	    0.083503	   -0.010016	   -0.004814	   -0.014829	    0.035558	    0.012354	    0.047912	    0.028448	   -0.064410	   -0.035961	    0.083735	    0.003840	    0.087575	    0.014165	   -0.015911	   -0.001746	    0.019366	   -0.006286	    0.013080	    0.024787	    0.001019	    0.025806	    0.031694	    0.013287	    0.044980	   -0.006439	   -0.023807	   -0.030246
     8.175	0	0	    0	    0.036917	   -0.007829	    0.029087	    0.017555	   -0.002881	    0.014674	    0.013783	   -0.003837	    0.009946	    0.031902	    0.010508	    0.042410	    0.059919	    0.020481	    0.080400	    0.014263	   -0.018877	   -0.004615	    0.020579	    0.005203	    0.025782	   -0.020774	   -0.067732	   -0.088507	    0.086810	    0.013383	    0.100193	    0.045026	    0.007193	    0.052219	    0.018867	   -0.001280	    0.017587	    0.026839	   -0.001003	    0.025836	    0.070249	    0.020889	    0.091139	   -0.007776	   -0.005370	   -0.013147	    0.031252	    0.013803	    0.045054	    0.040564	   -0.058929	   -0.018365	    0.096747	    0.008899	    0.105646	    0.018046	   -0.013977	    0.004069	    0.022929	   -0.004593	    0.018336	    0.032344	    0.002627	    0.034971	    0.036904	    0.013349	    0.050253	   -0.008592	   -0.022599	   -0.031191
     8.250	0	0	    0	    0.040562	   -0.009690	    0.030873	    0.019511	   -0.000946	    0.018565	    0.017796	   -0.006120	    0.011676	    0.033648	    0.010856	    0.044504	    0.063182	    0.021564	    0.084746	    0.018257	   -0.017979	    0.000278	    0.023538	    0.011126	    0.034663	   -0.019580	   -0.068457	   -0.088037	    0.092811	    0.014226	    0.107038	    0.048148	    0.007218	    0.055366	    0.019667	   -0.000177	    0.019490	    0.029769	    0.000023	    0.029792	    0.071640	    0.024149	    0.095789	   -0.007771	    0.000332	   -0.007439	    0.038270	    0.013012	    0.051283	    0.045262	   -0.060496	   -0.015234	    0.100798	    0.010536	    0.111334	    0.020948	   -0.013322	    0.007625	    0.025842	   -0.004137	    0.021705	    0.035408	    0.004523	    0.039931	    0.038783	    0.015282	    0.054065	   -0.006375	   -0.020734	   -0.027109
     8.325	0	0	    0	    0.036666	    0.003588	    0.040255	    0.016973	    0.003024	    0.019997	    0.016799	   -0.000414	    0.016385	    0.034454	    0.013003	    0.047457	    0.066003	    0.023270	    0.089273	    0.020188	   -0.014452	    0.005736	    0.020008	    0.017014	    0.037022	   -0.021857	   -0.062828	   -0.084684	    0.090903	    0.018982	    0.109884	    0.047924	    0.008544	    0.056468	    0.021280	   -0.000564	    0.020716	    0.032008	    0.000207	    0.032215	    0.068312	    0.031309	    0.099621	   -0.003208	   -0.001935	   -0.005143	    0.032530	    0.018537	    0.051067	    0.042280	   -0.055442	   -0.013162	    0.101584	    0.012572	    0.114157	    0.021643	   -0.012650	    0.008992	    0.026765	   -0.003700	    0.023065	    0.036663	    0.005673	    0.042336	    0.038045	    0.016625	    0.054670	   -0.007612	   -0.018158	   -0.025770
     8.400	0	0	    0	    0.034893	    0.004899	    0.039792	    0.018701	    0.000708	    0.019408	    0.019346	   -0.005673	    0.013672	    0.035982	    0.012012	    0.047994	    0.065691	    0.022967	    0.088658	    0.013822	   -0.013057	    0.000765	    0.015807	    0.014372	    0.030179	   -0.018611	   -0.066926	   -0.085537	    0.090827	    0.015858	    0.106684	    0.048162	    0.007665	    0.055827	    0.020705	    0.000007	    0.020711	    0.031831	    0.000702	    0.032532	    0.072691	    0.023940	    0.096632	   -0.006756	   -0.002580	   -0.009337	    0.022954	    0.023822	    0.046776	    0.041672	   -0.057718	   -0.016046	    0.101379	    0.010164	    0.111542	    0.021670	   -0.012460	    0.009210	    0.027159	   -0.003847	    0.023312	    0.038273	    0.003029	    0.041302	    0.038886	    0.014015	    0.052901	   -0.007187	   -0.021444	   -0.028631
     8.475	0	0	    0	    0.034621	    0.001519	    0.036140	    0.017848	    0.001809	    0.019657	    0.012441	    0.001738	    0.014179	    0.034712	    0.013381	    0.048093	    0.062836	    0.024958	    0.087795	    0.018078	   -0.015963	    0.002115	    0.019683	    0.016778	    0.036461	   -0.017623	   -0.069560	   -0.087183	    0.091615	    0.014977	    0.106592	    0.048246	    0.007879	    0.056125	    0.021202	   -0.000533	    0.020669	    0.032465	    0.000194	    0.032659	    0.072232	    0.024803	    0.097035	   -0.004073	   -0.004248	   -0.008321	    0.030822	    0.015441	    0.046263	    0.041273	   -0.057401	   -0.016128	    0.101815	    0.010501	    0.112317	    0.022490	   -0.012733	    0.009757	    0.027836	   -0.003979	    0.023857	    0.038409	    0.003595	    0.042004	    0.038662	    0.014587	    0.053249	   -0.004135	   -0.024042	   -0.028177
     8.550	0	0	    0	    0.033241	    0.006985	    0.040226	    0.018059	    0.000498	    0.018557	    0.012587	   -0.001486	    0.011101	    0.035858	    0.011822	    0.047680	    0.065112	    0.023404	    0.088517	    0.013574	   -0.011580	    0.001994	    0.010574	    0.022596	    0.033170	   -0.021653	   -0.063271	   -0.084924	    0.089053	    0.017022	    0.106075	    0.047563	    0.007575	    0.055138	    0.021111	   -0.000934	    0.020176	    0.032664	    0.000475	    0.033139	    0.071763	    0.026318	    0.098081	   -0.002504	   -0.005594	   -0.008098	    0.032071	    0.019005	    0.051076	    0.040239	   -0.058122	   -0.017883	    0.100732	    0.009625	    0.110357	    0.022174	   -0.012549	    0.009624	    0.027675	   -0.004123	    0.023553	    0.038370	    0.003688	    0.042058	    0.036771	    0.015409	    0.052180	   -0.001955	   -0.024568	   -0.026523
     8.625	0	0	    0	    0.035554	    0.000348	    0.035902	    0.018082	    0.001018	    0.019100	    0.016943	   -0.005375	    0.011569	    0.035322	    0.011315	    0.046637	    0.062667	    0.023506	    0.086173	    0.019511	   -0.020649	   -0.001138	    0.012126	    0.025416	    0.037543	   -0.021396	   -0.065371	   -0.086768	    0.088160	    0.015049	    0.103208	    0.046199	    0.007504	    0.053703	    0.021467	   -0.001374	    0.020094	    0.032511	   -0.000007	    0.032503	    0.072541	    0.023275	    0.095816	   -0.004042	   -0.003042	   -0.007084	    0.042699	    0.007496	    0.050195	    0.037404	   -0.057762	   -0.020357	    0.098441	    0.009421	    0.107862	    0.022003	   -0.013256	    0.008747	    0.027595	   -0.004781	    0.022813	    0.037184	    0.003385	    0.040569	    0.037359	    0.014280	    0.051639	    0.001774	   -0.028811	   -0.027037
     8.700	0	0	    0	    0.027248	    0.007238	    0.034486	    0.017873	   -0.001454	    0.016419	    0.010178	   -0.003522	    0.006656	    0.034785	    0.011523	    0.046308	    0.059154	    0.027286	    0.086439	    0.016562	   -0.018835	   -0.002274	    0.006388	    0.019089	    0.025477	   -0.021432	   -0.067087	   -0.088520	    0.085344	    0.014362	    0.099706	    0.045574	    0.006442	    0.052015	    0.020817	   -0.001140	    0.019676	    0.031902	   -0.000101	    0.031801	    0.070363	    0.024782	    0.095145	   -0.008234	   -0.003266	   -0.011500	    0.030276	    0.015801	    0.046078	    0.035039	   -0.058819	   -0.023780	    0.096252	    0.008592	    0.104844	    0.020611	   -0.012873	    0.007738	    0.026181	   -0.004472	    0.021709	    0.036049	    0.003218	    0.039267	    0.035552	    0.013597	    0.049150	   -0.003413	   -0.028092	   -0.031504
     8.775	0	0	    0	    0.023750	    0.008818	    0.032568	    0.017910	   -0.002159	    0.015750	    0.013732	   -0.004681	    0.009050	    0.032597	    0.013007	    0.045604	    0.064088	    0.022722	    0.086809	    0.018500	   -0.019444	   -0.000944	    0.019517	    0.016002	    0.035519	   -0.022926	   -0.065008	   -0.087934	    0.084049	    0.012846	    0.096895	    0.045524	    0.005359	    0.050883	    0.020434	   -0.001283	    0.019151	    0.031631	   -0.000393	    0.031238	    0.069756	    0.024518	    0.094273	   -0.005096	   -0.005888	   -0.010984	    0.040053	    0.011494	    0.051548	    0.035605	   -0.061836	   -0.026230	    0.094756	    0.007536	    0.102292	    0.020603	   -0.013697	    0.006906	    0.025340	   -0.004578	    0.020762	    0.035775	    0.002361	    0.038136	    0.033708	    0.014650	    0.048358	   -0.009412	   -0.020217	   -0.029630
     8.850	0	0	    0	    0.021832	    0.003061	    0.024894	    0.021376	   -0.007670	    0.013706	    0.016772	   -0.007893	    0.008880	    0.033217	    0.012687	    0.045903	    0.060809	    0.023583	    0.084392	    0.020703	   -0.027578	   -0.006875	    0.034072	   -0.004810	    0.029262	   -0.023910	   -0.065915	   -0.089825	    0.081220	    0.013016	    0.094236	    0.044334	    0.005752	    0.050086	    0.019456	   -0.000628	    0.018829	    0.030767	   -0.000673	    0.030094	    0.066363	    0.026325	    0.092688	   -0.004426	   -0.005226	   -0.009652	    0.029387	    0.018713	    0.048100	    0.030981	   -0.059707	   -0.028726	    0.092597	    0.007518	    0.100116	    0.019051	   -0.013176	    0.005875	    0.024593	   -0.004894	    0.019700	    0.032621	    0.004344	    0.036966	    0.031880	    0.015578	    0.047459	   -0.006167	   -0.023913	   -0.030080
     8.925	0	0	    0	    0.024800	    0.008409	    0.033209	    0.016053	   -0.002513	    0.013540	    0.013950	   -0.007619	    0.006331	    0.032520	    0.012402	    0.044921	    0.063317	    0.022376	    0.085694	    0.012652	   -0.016871	   -0.004219	    0.016928	    0.014991	    0.031919	   -0.021911	   -0.068444	   -0.090355	    0.078948	    0.012559	    0.091507	    0.042679	    0.006169	    0.048849	    0.018599	   -0.000565	    0.018034	    0.029669	   -0.000907	    0.028762	    0.066582	    0.025634	    0.092216	   -0.005578	   -0.007179	   -0.012757	    0.037259	    0.015298	    0.052557	    0.028719	   -0.059932	   -0.031214	    0.091225	    0.006303	    0.097528	    0.018147	   -0.013421	    0.004726	    0.023529	   -0.005191	    0.018338	    0.031810	    0.002925	    0.034735	    0.032187	    0.013514	    0.045701	   -0.011286	   -0.019821	   -0.031107
     9.000	0	0	    0	    0.029924	    0.000118	    0.030042	    0.014475	   -0.003096	    0.011379	    0.006883	   -0.003859	    0.003024	    0.032842	    0.011168	    0.044010	    0.060459	    0.025021	    0.085480	    0.010725	   -0.011600	   -0.000876	    0.018750	    0.013427	    0.032177	   -0.023550	   -0.067548	   -0.091098	    0.078183	    0.010340	    0.088523	    0.042044	    0.005527	    0.047571	    0.018707	   -0.001515	    0.017192	    0.028234	   -0.000428	    0.027806	    0.067312	    0.024033	    0.091345	   -0.010912	   -0.002818	   -0.013730	    0.032158	    0.020722	    0.052880	    0.028660	   -0.062807	   -0.034147	    0.089610	    0.005664	    0.095274	    0.017221	   -0.013665	    0.003556	    0.022372	   -0.005408	    0.016964	    0.031152	    0.002142	    0.033294	    0.030950	    0.013652	    0.044602	   -0.001999	   -0.030019	   -0.032018
     9.075	0	0	    0	    0.024968	    0.011002	    0.035970	    0.011927	    0.000096	    0.012023	    0.011557	   -0.008497	    0.003060	    0.030088	    0.012548	    0.042636	    0.057908	    0.026247	    0.084156	    0.012046	   -0.017372	   -0.005326	    0.016496	    0.017213	    0.033710	   -0.025410	   -0.066540	   -0.091949	    0.073664	    0.013117	    0.086781	    0.039329	    0.007138	    0.046467	    0.016989	   -0.001182	    0.015807	    0.027003	   -0.000521	    0.026482	    0.061596	    0.028072	    0.089668	   -0.010923	   -0.006206	   -0.017128	    0.028738	    0.024795	    0.053533	    0.024330	   -0.060985	   -0.036655	    0.086597	    0.005900	    0.092496	    0.015635	   -0.013717	    0.001918	    0.020673	   -0.005147	    0.015526	    0.028119	    0.003403	    0.031522	    0.028644	    0.013435	    0.042079	   -0.013740	   -0.021585	   -0.035324
     9.150	0	0	    0	    0.030598	   -0.000749	    0.029849	    0.010479	   -0.000422	    0.010057	    0.007022	   -0.002857	    0.004165	    0.030042	    0.012724	    0.042766	    0.059156	    0.024021	    0.083177	    0.004669	   -0.012848	   -0.008180	    0.011828	    0.023812	    0.035640	   -0.027091	   -0.065193	   -0.092284	    0.071305	    0.011484	    0.082789	    0.038915	    0.005479	    0.044394	    0.016888	   -0.001528	    0.015359	    0.025915	   -0.000717	    0.025198	    0.061884	    0.025052	    0.086936	   -0.013056	   -0.002025	   -0.015081	    0.033936	    0.019864	    0.053799	    0.021845	   -0.061653	   -0.039807	    0.084293	    0.004718	    0.089011	    0.016048	   -0.014754	    0.001294	    0.020961	   -0.006142	    0.014819	    0.027041	    0.002554	    0.029595	    0.027672	    0.012979	    0.040650	   -0.008982	   -0.025529	   -0.034511
     9.225	0	0	    0	    0.018188	    0.018612	    0.036800	    0.020007	   -0.002591	    0.017416	    0.017467	   -0.004849	    0.012618	    0.030788	    0.012833	    0.043620	    0.059933	    0.026976	    0.086910	    0.024107	   -0.021125	    0.002982	    0.034129	    0.008535	    0.042665	   -0.025363	   -0.064472	   -0.089836	    0.084934	    0.010707	    0.095641	    0.047572	    0.004906	    0.052479	    0.020001	   -0.001697	    0.018304	    0.028944	   -0.002530	    0.026414	    0.066624	    0.024406	    0.091031	   -0.005876	   -0.004708	   -0.010584	    0.038893	    0.017763	    0.056655	    0.037159	   -0.060739	   -0.023581	    0.097929	    0.004821	    0.102750	    0.021417	   -0.014190	    0.007227	    0.025691	   -0.005532	    0.020159	    0.032893	    0.003051	    0.035945	    0.033291	    0.013360	    0.046651	   -0.007516	   -0.024406	   -0.031921
     9.300	0	0	    0	    0.023085	    0.007853	    0.030938	    0.019980	   -0.000317	    0.019663	    0.024354	   -0.008569	    0.015786	    0.034360	    0.013119	    0.047479	    0.065636	    0.023412	    0.089049	    0.030185	   -0.025015	    0.005169	    0.030022	    0.013922	    0.043944	   -0.022040	   -0.065742	   -0.087782	    0.090446	    0.014679	    0.105125	    0.050212	    0.006144	    0.056356	    0.021731	   -0.001563	    0.020168	    0.032282	   -0.000668	    0.031614	    0.070267	    0.025620	    0.095887	   -0.002966	   -0.010079	   -0.013045	    0.039403	    0.016609	    0.056012	    0.042110	   -0.058314	   -0.016204	    0.102574	    0.009384	    0.111958	    0.023388	   -0.013351	    0.010038	    0.028191	   -0.005149	    0.023042	    0.037920	    0.003762	    0.041682	    0.036439	    0.012375	    0.048814	   -0.012857	   -0.023304	   -0.036161
     9.375	0	0	    0	    0.040017	   -0.003421	    0.036595	    0.021168	    0.000371	    0.021539	    0.015644	   -0.000153	    0.015490	    0.035946	    0.013700	    0.049647	    0.066606	    0.024132	    0.090738	    0.022520	   -0.020890	    0.001630	    0.020023	    0.021639	    0.041661	   -0.017086	   -0.068663	   -0.085749	    0.095020	    0.013440	    0.108460	    0.051515	    0.007106	    0.058621	    0.022652	   -0.001064	    0.021588	    0.034170	   -0.000400	    0.033770	    0.074172	    0.023001	    0.097173	   -0.002341	   -0.005161	   -0.007502	    0.044925	    0.013315	    0.058240	    0.044726	   -0.057080	   -0.012354	    0.105944	    0.009686	    0.115630	    0.025160	   -0.013184	    0.011976	    0.029433	   -0.004560	    0.024874	    0.040563	    0.003356	    0.043919	    0.037346	    0.013096	    0.050441	   -0.004003	   -0.025124	   -0.029127
     9.450	0	0	    0	    0.034698	   -0.001353	    0.033345	    0.022248	   -0.002151	    0.020097	    0.018705	   -0.003068	    0.015637	    0.036230	    0.013351	    0.049581	    0.067149	    0.023472	    0.090622	    0.018770	   -0.016240	    0.002530	    0.022897	    0.016332	    0.039230	   -0.021202	   -0.066018	   -0.087220	    0.091066	    0.017698	    0.108764	    0.049501	    0.007831	    0.057331	    0.022389	   -0.000671	    0.021719	    0.034683	   -0.000051	    0.034632	    0.069577	    0.028751	    0.098328	   -0.005821	   -0.003391	   -0.009212	    0.040235	    0.017506	    0.057741	    0.041761	   -0.056573	   -0.014812	    0.103385	    0.010403	    0.113788	    0.024039	   -0.013081	    0.010958	    0.029093	   -0.004786	    0.024307	    0.039180	    0.005184	    0.044364	    0.035211	    0.015383	    0.050594	   -0.004953	   -0.024743	   -0.029696
     9.525	0	0	    0	    0.043892	   -0.010207	    0.033685	    0.021927	   -0.000921	    0.021005	    0.024252	   -0.006921	    0.017331	    0.037031	    0.013520	    0.050551	    0.069523	    0.022761	    0.092284	    0.020481	   -0.015374	    0.005107	    0.031482	    0.014580	    0.046062	   -0.020398	   -0.065659	   -0.086057	    0.091176	    0.015566	    0.106743	    0.050536	    0.006673	    0.057209	    0.022741	   -0.000469	    0.022271	    0.034652	   -0.000223	    0.034429	    0.070704	    0.027175	    0.097879	   -0.005708	   -0.004215	   -0.009923	    0.046592	    0.014957	    0.061549	    0.040623	   -0.056056	   -0.015433	    0.103457	    0.009514	    0.112972	    0.024666	   -0.013472	    0.011194	    0.029159	   -0.004715	    0.024443	    0.039393	    0.004151	    0.043544	    0.036110	    0.013435	    0.049545	   -0.001626	   -0.028813	   -0.030439
     9.600	0	0	    0	    0.037835	    0.000481	    0.038316	    0.019979	    0.002540	    0.022519	    0.019443	   -0.002153	    0.017290	    0.036417	    0.014398	    0.050815	    0.069344	    0.023942	    0.093287	    0.019351	   -0.011564	    0.007787	    0.030004	    0.017491	    0.047494	   -0.018450	   -0.065714	   -0.084164	    0.091112	    0.015642	    0.106754	    0.049526	    0.007449	    0.056975	    0.023130	   -0.000803	    0.022327	    0.035071	   -0.000763	    0.034307	    0.070692	    0.027372	    0.098065	   -0.005134	   -0.004880	   -0.010014	    0.045045	    0.018872	    0.063917	    0.040094	   -0.056078	   -0.015984	    0.103090	    0.008917	    0.112007	    0.023799	   -0.013052	    0.010747	    0.029006	   -0.004917	    0.024089	    0.040488	    0.002765	    0.043253	    0.035650	    0.013493	    0.049143	   -0.007987	   -0.022506	   -0.030493
     9.675	0	0	    0	    0.049779	   -0.011097	    0.038682	    0.021492	   -0.000862	    0.020630	    0.020629	   -0.007532	    0.013096	    0.040065	    0.010504	    0.050570	    0.074068	    0.019656	    0.093724	    0.027545	   -0.021773	    0.005773	    0.043149	    0.001190	    0.044339	   -0.017470	   -0.067370	   -0.084840	    0.089554	    0.014709	    0.104263	    0.049182	    0.005202	    0.054384	    0.021611	   -0.000267	    0.021345	    0.034758	   -0.001144	    0.033614	    0.070568	    0.026308	    0.096876	   -0.001057	   -0.006174	   -0.007232	    0.046614	    0.015772	    0.062385	    0.039006	   -0.057398	   -0.018392	    0.100157	    0.008436	    0.108593	    0.022926	   -0.013427	    0.009500	    0.027978	   -0.004964	    0.023014	    0.038111	    0.003554	    0.041665	    0.035015	    0.014119	    0.049134	   -0.004611	   -0.023851	   -0.028462
     9.750	0	0	    0	    0.043089	   -0.000783	    0.042305	    0.022921	   -0.002826	    0.020095	    0.018839	   -0.006538	    0.012301	    0.036858	    0.013268	    0.050125	    0.069443	    0.021906	    0.091349	    0.020207	   -0.018592	    0.001615	    0.036819	    0.009947	    0.046766	   -0.017833	   -0.069300	   -0.087133	    0.085495	    0.015628	    0.101123	    0.047747	    0.005900	    0.053647	    0.021443	   -0.000434	    0.021009	    0.033942	   -0.000997	    0.032945	    0.069685	    0.025875	    0.095560	   -0.003281	   -0.006555	   -0.009836	    0.047775	    0.019022	    0.066797	    0.036535	   -0.058546	   -0.022012	    0.097912	    0.007976	    0.105888	    0.022130	   -0.013743	    0.008387	    0.027289	   -0.005383	    0.021906	    0.036900	    0.003821	    0.040721	    0.034011	    0.013618	    0.047629	   -0.005899	   -0.024364	   -0.030263
     9.825	0	0	    0	    0.035258	   -0.002982	    0.032275	    0.017904	   -0.000134	    0.017770	    0.013478	   -0.001373	    0.012105	    0.036736	    0.012357	    0.049093	    0.065616	    0.024080	    0.089697	    0.015508	   -0.014532	    0.000976	    0.029619	    0.012409	    0.042028	   -0.019565	   -0.068284	   -0.087849	    0.082438	    0.015001	    0.097439	    0.045819	    0.005690	    0.051509	    0.021388	   -0.001289	    0.020099	    0.032474	   -0.001054	    0.031420	    0.065541	    0.027662	    0.093204	   -0.008191	   -0.004276	   -0.012467	    0.049941	    0.011438	    0.061379	    0.032628	   -0.057518	   -0.024890	    0.095597	    0.006610	    0.102207	    0.020756	   -0.014305	    0.006452	    0.025652	   -0.005475	    0.020177	    0.034400	    0.003555	    0.037955	    0.031595	    0.013988	    0.045583	   -0.006980	   -0.027005	   -0.033985
     9.900	0	0	    0	    0.033718	   -0.003790	    0.029928	    0.016865	   -0.000534	    0.016332	    0.017465	   -0.006319	    0.011147	    0.036473	    0.011742	    0.048215	    0.061459	    0.027690	    0.089149	    0.018888	   -0.018802	    0.000086	    0.025336	    0.016814	    0.042150	   -0.024111	   -0.065477	   -0.089588	    0.082559	    0.012905	    0.095464	    0.043945	    0.006153	    0.050098	    0.020348	   -0.000900	    0.019448	    0.031033	   -0.000923	    0.030110	    0.066658	    0.026101	    0.092758	   -0.008180	   -0.006474	   -0.014654	    0.035957	    0.025528	    0.061485	    0.032312	   -0.059146	   -0.026834	    0.092806	    0.006683	    0.099489	    0.019388	   -0.014145	    0.005243	    0.024321	   -0.005505	    0.018816	    0.034376	    0.002220	    0.036596	    0.030699	    0.013383	    0.044082	   -0.010465	   -0.024251	   -0.034716
