 [File Information]      		 [Data Line]	36
Measured Date	2024/05/27 093500
ID		Version	11.0
Name	oceane_1	[HeaderType]	11.0/11.0
Comment	
[Measurement Info.]
Holder Location	       0
Block Design	Off     
Pre.Rest Time	       0
Task Time	       0
Pos.Rest Time	       0
Loop	       0
Averaging	       1
Total Points	     815
[.INF File]
Filename	Cognitive1.INF
[Condition-1]
HV Switching	OFF
 R1 ,R2 ,R3 ,R4 ,R5 ,R6 ,R7 ,R8 
 120.00, 70.00,120.00,100.00, 90.00, 70.00,120.00,120.00
 Gain(X1,X4,X16,X64)
 R1 ,R2 ,R3 ,R4 ,R5 ,R6 ,R7 ,R8 
 1,1,1,1,1,1,1,1
[Analysis Condition]
Smoothed Type	None            
Smoothed Points	       0
Smoothed Loop	       0
Baseline Method	None            
Baseline location	
[Text Info.]
Output Mode	Continious      	Task No.		Data Type	Hb      
Time Range	    0.00	   61.05	Averaing	1
(1,3)(5,3)(5,7)(2,7)(2,4)(6,4)(6,8)(1,1)(3,3)(5,5)(7,7)(2,2)(4,4)(6,6)(8,8)(3,1)(3,5)(7,5)(7,2)(4,2)(4,6)(8,6)
         	     	     	     	    ch- 1	    ch- 1	    ch- 1	    ch- 2	    ch- 2	    ch- 2	    ch- 3	    ch- 3	    ch- 3	    ch- 4	    ch- 4	    ch- 4	    ch- 5	    ch- 5	    ch- 5	    ch- 6	    ch- 6	    ch- 6	    ch- 7	    ch- 7	    ch- 7	    ch- 8	    ch- 8	    ch- 8	    ch- 9	    ch- 9	    ch- 9	    ch-10	    ch-10	    ch-10	    ch-11	    ch-11	    ch-11	    ch-12	    ch-12	    ch-12	    ch-13	    ch-13	    ch-13	    ch-14	    ch-14	    ch-14	    ch-15	    ch-15	    ch-15	    ch-16	    ch-16	    ch-16	    ch-17	    ch-17	    ch-17	    ch-18	    ch-18	    ch-18	    ch-19	    ch-19	    ch-19	    ch-20	    ch-20	    ch-20	    ch-21	    ch-21	    ch-21	    ch-22	    ch-22	    ch-22
Time(sec)	Task	Mark	Count	    oxyHb   	  deoxyHb	  totalHb	    oxyHb   	  deoxyHb	  totalHb	    oxyHb   	  deoxyHb	  totalHb	    oxyHb   	  deoxyHb	  totalHb	    oxyHb   	  deoxyHb	  totalHb	    oxyHb   	  deoxyHb	  totalHb	    oxyHb   	  deoxyHb	  totalHb	    oxyHb   	  deoxyHb	  totalHb	    oxyHb   	  deoxyHb	  totalHb	    oxyHb   	  deoxyHb	  totalHb	    oxyHb   	  deoxyHb	  totalHb	    oxyHb   	  deoxyHb	  totalHb	    oxyHb   	  deoxyHb	  totalHb	    oxyHb   	  deoxyHb	  totalHb	    oxyHb   	  deoxyHb	  totalHb	    oxyHb   	  deoxyHb	  totalHb	    oxyHb   	  deoxyHb	  totalHb	    oxyHb   	  deoxyHb	  totalHb	    oxyHb   	  deoxyHb	  totalHb	    oxyHb   	  deoxyHb	  totalHb	    oxyHb   	  deoxyHb	  totalHb	    oxyHb   	  deoxyHb	  totalHb
     0.000	0	0Z	    0	    0.000000	    0.000000	    0.000000	    0.000000	    0.000000	    0.000000	    0.000000	    0.000000	    0.000000	    0.000000	    0.000000	    0.000000	    0.000000	    0.000000	    0.000000	    0.000000	    0.000000	    0.000000	    0.000000	    0.000000	    0.000000	    0.000000	    0.000000	    0.000000	    0.000000	    0.000000	    0.000000	    0.000000	    0.000000	    0.000000	    0.000000	    0.000000	    0.000000	    0.000000	    0.000000	    0.000000	    0.000000	    0.000000	    0.000000	    0.000000	    0.000000	    0.000000	    0.000000	    0.000000	    0.000000	    0.000000	    0.000000	    0.000000	    0.000000	    0.000000	    0.000000	    0.000000	    0.000000	    0.000000	    0.000000	    0.000000	    0.000000	    0.000000	    0.000000	    0.000000	    0.000000	    0.000000	    0.000000	    0.000000	    0.000000	    0.000000
     0.075	0	0	    0	   -0.022274	    0.020657	   -0.001616	    0.000686	   -0.000191	    0.000495	   -0.003979	    0.004071	    0.000092	   -0.004366	    0.004681	    0.000314	   -0.014368	    0.010754	   -0.003613	    0.009200	   -0.002163	    0.007037	   -0.029353	   -0.014928	   -0.044282	   -0.025628	    0.007973	   -0.017655	   -0.000926	    0.000641	   -0.000286	   -0.004608	    0.012353	    0.007746	   -0.000398	    0.000056	   -0.000342	   -0.003763	    0.001047	   -0.002716	    0.002367	   -0.005546	   -0.003179	   -0.035371	    0.004799	   -0.030572	   -0.040014	   -0.030349	   -0.070364	   -0.013022	    0.001904	   -0.011118	   -0.007109	    0.007003	   -0.000105	    0.002048	   -0.002977	   -0.000928	   -0.001171	   -0.000311	   -0.001482	   -0.000992	   -0.000039	   -0.001031	   -0.033121	   -0.006820	   -0.039941	   -0.067038	   -0.074506	   -0.141544
     0.150	0	0	    0	   -0.029436	   -0.000152	   -0.029588	   -0.003155	   -0.002361	   -0.005516	    0.000620	   -0.008280	   -0.007661	   -0.006715	    0.000757	   -0.005958	   -0.009485	    0.007646	   -0.001839	    0.023974	   -0.012946	    0.011028	   -0.007217	   -0.062534	   -0.069751	   -0.047002	   -0.042888	   -0.089890	   -0.002710	   -0.000384	   -0.003094	   -0.005659	   -0.008888	   -0.014547	   -0.002760	   -0.000090	   -0.002850	   -0.004777	    0.000223	   -0.004554	    0.001185	   -0.005810	   -0.004625	   -0.034787	   -0.007416	   -0.042203	    0.019715	   -0.005516	    0.014198	   -0.034888	   -0.019706	   -0.054595	   -0.006676	   -0.005364	   -0.012039	   -0.005485	   -0.003827	   -0.009312	   -0.004264	   -0.001054	   -0.005318	   -0.011110	   -0.003036	   -0.014147	   -0.073722	   -0.042286	   -0.116008	   -0.005915	   -0.102389	   -0.108304
     0.225	0	0	    0	   -0.026672	   -0.016705	   -0.043377	   -0.003678	   -0.007922	   -0.011600	    0.002721	   -0.013075	   -0.010354	   -0.004430	   -0.002963	   -0.007393	   -0.004919	    0.003129	   -0.001789	    0.034470	   -0.029847	    0.004624	    0.032348	   -0.062416	   -0.030068	   -0.045662	   -0.053161	   -0.098823	   -0.001313	   -0.005887	   -0.007200	    0.023818	   -0.034918	   -0.011099	   -0.002832	   -0.001252	   -0.004084	   -0.005482	   -0.000980	   -0.006462	    0.000402	   -0.002417	   -0.002015	   -0.037004	   -0.036121	   -0.073125	    0.050650	    0.010168	    0.060817	   -0.046411	   -0.052815	   -0.099226	   -0.000217	   -0.014047	   -0.014264	   -0.003551	   -0.003030	   -0.006581	   -0.004879	   -0.001980	   -0.006859	   -0.014350	   -0.010576	   -0.024926	   -0.085655	   -0.090339	   -0.175994	    0.029914	   -0.036725	   -0.006811
     0.300	0	0	    0	   -0.031392	   -0.007285	   -0.038678	   -0.010849	   -0.002377	   -0.013225	   -0.006817	   -0.003364	   -0.010180	   -0.007535	   -0.000485	   -0.008020	   -0.014967	    0.008485	   -0.006483	    0.005041	   -0.016456	   -0.011415	   -0.009549	   -0.023502	   -0.033051	   -0.053736	   -0.049343	   -0.103079	   -0.001822	   -0.005028	   -0.006850	    0.004117	   -0.019368	   -0.015251	   -0.004470	   -0.000258	   -0.004728	   -0.007061	   -0.000671	   -0.007732	   -0.005712	    0.000529	   -0.005183	   -0.046480	   -0.034330	   -0.080810	    0.088098	    0.015597	    0.103695	   -0.050260	   -0.057109	   -0.107370	   -0.006966	   -0.010281	   -0.017247	   -0.007507	   -0.000891	   -0.008398	   -0.006243	   -0.001103	   -0.007346	   -0.017514	   -0.010827	   -0.028341	   -0.088362	   -0.103745	   -0.192107	    0.025807	   -0.014158	    0.011649
     0.375	0	0	    0	   -0.047104	   -0.001089	   -0.048193	   -0.012358	   -0.003045	   -0.015403	   -0.009090	   -0.003141	   -0.012230	   -0.009888	    0.001254	   -0.008634	   -0.019787	    0.012123	   -0.007664	    0.011108	   -0.022210	   -0.011102	    0.013880	   -0.061823	   -0.047942	   -0.058183	   -0.055087	   -0.113271	   -0.004784	   -0.005433	   -0.010217	   -0.010565	   -0.001884	   -0.012449	   -0.005364	   -0.000484	   -0.005849	   -0.008655	    0.000547	   -0.008108	   -0.006047	   -0.000378	   -0.006424	   -0.048863	   -0.038061	   -0.086924	    0.008675	    0.056109	    0.064784	   -0.052818	   -0.062233	   -0.115052	   -0.007288	   -0.007486	   -0.014774	   -0.007581	   -0.002436	   -0.010017	   -0.004902	   -0.002226	   -0.007128	   -0.018980	   -0.010288	   -0.029268	   -0.089544	   -0.107292	   -0.196836	    0.003960	   -0.017409	   -0.013449
     0.450	0	0	    0	   -0.017579	   -0.014263	   -0.031842	   -0.011331	   -0.004332	   -0.015662	   -0.009737	   -0.001039	   -0.010776	   -0.007771	   -0.000393	   -0.008164	   -0.009697	   -0.001832	   -0.011530	    0.015280	   -0.014441	    0.000840	    0.003517	   -0.035258	   -0.031741	   -0.048981	   -0.058766	   -0.107747	   -0.007616	   -0.002865	   -0.010481	   -0.008256	   -0.000266	   -0.008522	   -0.004736	   -0.001175	   -0.005912	   -0.008122	   -0.001405	   -0.009527	   -0.010303	    0.005506	   -0.004796	   -0.039487	   -0.058715	   -0.098202	    0.027977	   -0.029399	   -0.001422	   -0.054464	   -0.060363	   -0.114827	   -0.007542	   -0.005756	   -0.013298	   -0.003507	   -0.004649	   -0.008156	   -0.004881	   -0.001573	   -0.006454	   -0.017087	   -0.011512	   -0.028599	   -0.075391	   -0.104449	   -0.179841	   -0.039729	   -0.079818	   -0.119548
     0.525	0	0	    0	   -0.008283	   -0.016226	   -0.024509	   -0.009552	   -0.007800	   -0.017352	   -0.007253	   -0.008019	   -0.015271	   -0.004917	   -0.003382	   -0.008299	   -0.009158	   -0.012128	   -0.021286	    0.003581	   -0.022776	   -0.019196	    0.027524	   -0.064800	   -0.037276	   -0.011214	   -0.040948	   -0.052162	   -0.010715	   -0.005353	   -0.016068	    0.008179	   -0.020997	   -0.012817	   -0.006352	   -0.000273	   -0.006625	   -0.007565	   -0.002206	   -0.009771	   -0.012618	   -0.004491	   -0.017110	   -0.029925	   -0.024625	   -0.054550	   -0.014045	   -0.018197	   -0.032243	   -0.038357	   -0.062557	   -0.100914	   -0.004592	   -0.009978	   -0.014570	   -0.012025	    0.001494	   -0.010531	   -0.006528	   -0.000127	   -0.006656	   -0.015040	   -0.006992	   -0.022031	   -0.031363	   -0.073290	   -0.104653	    0.007502	   -0.077287	   -0.069785
     0.600	0	0	    0	   -0.013712	    0.012633	   -0.001079	   -0.001459	   -0.005332	   -0.006791	    0.001749	   -0.008348	   -0.006599	    0.000272	   -0.000555	   -0.000283	   -0.011327	    0.002041	   -0.009286	   -0.006133	   -0.004296	   -0.010429	    0.002100	   -0.000842	    0.001258	   -0.010224	   -0.002681	   -0.012905	   -0.006383	   -0.005542	   -0.011925	   -0.002017	    0.002897	    0.000881	   -0.000919	   -0.001906	   -0.002825	   -0.003764	   -0.001350	   -0.005114	   -0.006079	   -0.012943	   -0.019023	   -0.016685	   -0.007339	   -0.024024	   -0.014694	   -0.001139	   -0.015832	   -0.006665	   -0.013255	   -0.019920	   -0.002387	   -0.006445	   -0.008832	   -0.003340	   -0.002062	   -0.005402	   -0.002796	   -0.000707	   -0.003502	   -0.006461	   -0.006876	   -0.013336	   -0.010358	   -0.013000	   -0.023358	   -0.036894	   -0.006695	   -0.043590
     0.675	0	0	    0	   -0.019647	    0.007194	   -0.012453	   -0.000490	    0.001939	    0.001449	   -0.003710	    0.005057	    0.001347	    0.000240	    0.001596	    0.001836	   -0.006679	   -0.003258	   -0.009937	   -0.000162	   -0.001660	   -0.001821	   -0.041903	   -0.007565	   -0.049468	   -0.020998	    0.001301	   -0.019697	    0.000816	   -0.003511	   -0.002695	    0.011792	   -0.002346	    0.009446	    0.002149	   -0.001193	    0.000955	   -0.003686	   -0.001055	   -0.004742	   -0.001293	   -0.007624	   -0.008917	   -0.037627	   -0.002639	   -0.040266	   -0.046194	   -0.028243	   -0.074437	   -0.009613	    0.000909	   -0.008704	    0.002452	   -0.004091	   -0.001639	   -0.000836	    0.000616	   -0.000219	   -0.001259	    0.000485	   -0.000774	   -0.002738	   -0.001749	   -0.004487	   -0.037111	   -0.001003	   -0.038114	   -0.108061	   -0.063297	   -0.171358
     0.750	0	0	    0	   -0.032870	    0.007729	   -0.025141	   -0.002237	    0.001250	   -0.000987	   -0.001892	    0.003234	    0.001342	   -0.002284	    0.003310	    0.001026	   -0.007414	    0.009353	    0.001940	    0.018815	   -0.005521	    0.013294	   -0.036427	   -0.029798	   -0.066225	   -0.049083	   -0.032217	   -0.081300	    0.002351	   -0.002634	   -0.000283	    0.004703	   -0.008888	   -0.004185	    0.000501	    0.000316	    0.000817	   -0.003688	    0.001543	   -0.002145	    0.001036	   -0.006780	   -0.005743	   -0.032744	    0.003328	   -0.029417	    0.031588	   -0.019879	    0.011709	   -0.029519	   -0.016968	   -0.046488	    0.000661	   -0.004867	   -0.004206	    0.002269	   -0.002005	    0.000264	   -0.002524	    0.000003	   -0.002521	   -0.006953	   -0.001403	   -0.008356	   -0.049403	   -0.036448	   -0.085851	   -0.022964	   -0.108754	   -0.131718
     0.825	0	0	    0	   -0.031546	   -0.004466	   -0.036012	   -0.000003	   -0.004121	   -0.004124	    0.004253	   -0.005745	   -0.001492	   -0.003416	    0.000962	   -0.002454	   -0.009227	    0.015969	    0.006742	    0.025373	   -0.017567	    0.007806	    0.011118	   -0.039521	   -0.028402	   -0.043537	   -0.048001	   -0.091538	    0.002129	   -0.001484	    0.000645	    0.002524	   -0.002898	   -0.000373	   -0.000923	    0.000618	   -0.000305	   -0.004291	    0.001320	   -0.002970	    0.000552	    0.000834	    0.001386	   -0.036978	   -0.027557	   -0.064534	    0.076450	    0.009686	    0.086136	   -0.043270	   -0.050390	   -0.093660	    0.001705	   -0.012044	   -0.010339	    0.004554	   -0.006126	   -0.001572	   -0.002859	   -0.000729	   -0.003588	   -0.011414	   -0.009468	   -0.020882	   -0.084494	   -0.083252	   -0.167746	    0.034875	   -0.030124	    0.004751
     0.900	0	0	    0	   -0.027606	   -0.011209	   -0.038815	   -0.005596	    0.000231	   -0.005366	   -0.002556	    0.005394	    0.002838	   -0.004510	    0.003183	   -0.001327	   -0.010593	    0.012789	    0.002195	    0.021858	   -0.015994	    0.005864	    0.032328	   -0.051710	   -0.019383	   -0.044143	   -0.049247	   -0.093390	    0.001976	   -0.001987	   -0.000011	   -0.011155	    0.006718	   -0.004437	   -0.000354	    0.000359	    0.000005	   -0.004437	   -0.000499	   -0.004936	   -0.007064	    0.008525	    0.001461	   -0.035048	   -0.036306	   -0.071354	    0.101930	    0.015859	    0.117789	   -0.047880	   -0.051667	   -0.099547	   -0.001814	   -0.010131	   -0.011945	    0.001261	   -0.005298	   -0.004037	   -0.003106	   -0.000538	   -0.003644	   -0.013701	   -0.009825	   -0.023525	   -0.083820	   -0.099668	   -0.183488	    0.065107	    0.005386	    0.070493
     0.975	0	0	    0	   -0.011717	   -0.023440	   -0.035157	   -0.003040	   -0.003151	   -0.006192	   -0.003227	    0.003561	    0.000335	   -0.002931	   -0.000487	   -0.003418	   -0.002691	    0.003380	    0.000689	    0.018014	   -0.017846	    0.000168	    0.018089	   -0.046002	   -0.027913	   -0.041804	   -0.059059	   -0.100863	    0.001896	   -0.000817	    0.001079	    0.001338	   -0.012588	   -0.011250	   -0.001030	    0.000836	   -0.000194	   -0.004004	   -0.000349	   -0.004352	   -0.006660	    0.005385	   -0.001276	   -0.033559	   -0.038661	   -0.072220	    0.089357	    0.026292	    0.115649	   -0.047414	   -0.056630	   -0.104044	   -0.011822	   -0.000368	   -0.012191	   -0.002921	   -0.000115	   -0.003036	   -0.003120	   -0.000681	   -0.003801	   -0.013788	   -0.010128	   -0.023916	   -0.085438	   -0.101974	   -0.187412	    0.048812	    0.043412	    0.092224
     1.050	0	0	    0	   -0.012059	   -0.023892	   -0.035951	   -0.002124	   -0.007282	   -0.009405	    0.007521	   -0.009801	   -0.002280	   -0.003199	   -0.001610	   -0.004808	   -0.006273	    0.007934	    0.001661	    0.024484	   -0.036122	   -0.011638	    0.036808	   -0.070987	   -0.034179	   -0.047851	   -0.056177	   -0.104028	   -0.000414	   -0.000312	   -0.000726	    0.012619	   -0.022364	   -0.009745	   -0.001982	    0.000980	   -0.001002	   -0.003813	   -0.000294	   -0.004107	   -0.007743	    0.003163	   -0.004580	   -0.031144	   -0.050073	   -0.081217	    0.092145	    0.013300	    0.105445	   -0.049680	   -0.055980	   -0.105661	   -0.009948	   -0.001748	   -0.011696	   -0.002554	   -0.001043	   -0.003597	   -0.003081	   -0.000701	   -0.003781	   -0.014623	   -0.010399	   -0.025022	   -0.086489	   -0.106290	   -0.192779	    0.027329	    0.035278	    0.062607
     1.125	0	0	    0	   -0.037615	    0.004949	   -0.032666	   -0.006572	   -0.003243	   -0.009815	   -0.003766	   -0.000182	   -0.003948	   -0.008206	    0.002228	   -0.005978	   -0.014352	    0.020601	    0.006249	    0.021950	   -0.024631	   -0.002681	    0.009477	   -0.033595	   -0.024118	   -0.047654	   -0.053420	   -0.101074	   -0.002845	   -0.000326	   -0.003171	   -0.016267	    0.013980	   -0.002287	   -0.002414	    0.000936	   -0.001478	   -0.005883	    0.001829	   -0.004054	   -0.008158	    0.004882	   -0.003275	   -0.055972	   -0.030816	   -0.086789	   -0.011055	    0.057861	    0.046806	   -0.047640	   -0.056661	   -0.104300	   -0.005419	   -0.004562	   -0.009981	   -0.008119	    0.003891	   -0.004228	   -0.002679	   -0.000445	   -0.003124	   -0.014147	   -0.010037	   -0.024183	   -0.084978	   -0.105975	   -0.190953	   -0.010985	    0.013182	    0.002197
     1.200	0	0	    0	   -0.015175	   -0.003913	   -0.019088	   -0.009370	   -0.001263	   -0.010633	   -0.007021	    0.003869	   -0.003151	   -0.004416	   -0.002359	   -0.006775	   -0.005526	    0.008211	    0.002686	    0.019759	   -0.007643	    0.012116	    0.002838	   -0.023935	   -0.021097	   -0.027326	   -0.040156	   -0.067482	   -0.005132	   -0.000642	   -0.005773	   -0.003646	    0.001652	   -0.001994	   -0.003288	    0.001100	   -0.002189	   -0.004487	    0.000559	   -0.003928	   -0.009483	    0.009026	   -0.000457	   -0.033719	   -0.058825	   -0.092544	    0.016073	   -0.005028	    0.011045	   -0.045481	   -0.046805	   -0.092286	   -0.007062	   -0.000576	   -0.007638	   -0.004372	    0.002087	   -0.002284	   -0.002493	   -0.000210	   -0.002703	   -0.012773	   -0.007551	   -0.020324	   -0.070912	   -0.096546	   -0.167458	   -0.052192	   -0.078042	   -0.130234
     1.275	0	0	    0	   -0.009585	   -0.011887	   -0.021472	   -0.005738	   -0.005340	   -0.011079	   -0.007606	    0.000658	   -0.006948	   -0.004685	   -0.001811	   -0.006496	   -0.007414	    0.009353	    0.001940	    0.003191	   -0.003104	    0.000086	   -0.025723	   -0.014283	   -0.040006	   -0.018135	   -0.021898	   -0.040033	   -0.006702	   -0.003255	   -0.009957	   -0.001790	    0.004716	    0.002927	   -0.004034	    0.000245	   -0.003789	   -0.005033	    0.000649	   -0.004385	   -0.004269	   -0.001734	   -0.006003	   -0.026927	   -0.022283	   -0.049210	   -0.003345	   -0.010812	   -0.014157	   -0.020208	   -0.043390	   -0.063598	   -0.002977	   -0.002717	   -0.005694	   -0.004840	    0.002275	   -0.002565	   -0.003339	   -0.000088	   -0.003427	   -0.007579	   -0.006152	   -0.013731	   -0.034663	   -0.067105	   -0.101768	   -0.040297	   -0.075678	   -0.115975
     1.350	0	0	    0	    0.001723	   -0.013404	   -0.011681	   -0.005406	   -0.003627	   -0.009033	   -0.004453	   -0.006730	   -0.011183	   -0.002993	   -0.003328	   -0.006320	   -0.001767	   -0.000272	   -0.002039	   -0.001392	    0.001682	    0.000290	   -0.019271	   -0.036095	   -0.055366	   -0.023188	   -0.013963	   -0.037151	   -0.006945	   -0.002753	   -0.009699	    0.006426	   -0.013493	   -0.007067	   -0.004803	    0.000563	   -0.004240	   -0.005547	   -0.000502	   -0.006049	   -0.008300	    0.000950	   -0.007350	   -0.026921	   -0.018971	   -0.045892	   -0.035253	    0.002662	   -0.032591	   -0.026147	   -0.018415	   -0.044563	   -0.009634	    0.001312	   -0.008322	   -0.010393	    0.003483	   -0.006909	   -0.005216	    0.000175	   -0.005041	   -0.010345	   -0.002601	   -0.012946	   -0.051572	   -0.042617	   -0.094190	   -0.059208	   -0.087849	   -0.147056
     1.425	0	0	    0	   -0.023036	   -0.003815	   -0.026851	   -0.008505	   -0.000639	   -0.009145	   -0.011059	   -0.002839	   -0.013898	   -0.008084	   -0.002677	   -0.010761	   -0.008879	    0.009354	    0.000475	    0.014257	   -0.006550	    0.007707	   -0.036807	   -0.030755	   -0.067562	   -0.055858	   -0.027130	   -0.082988	   -0.005415	   -0.004525	   -0.009940	   -0.010317	    0.007607	   -0.002710	   -0.006186	    0.000274	   -0.005912	   -0.007586	   -0.000204	   -0.007790	   -0.008720	   -0.001812	   -0.010532	   -0.055634	   -0.001560	   -0.057194	    0.012454	   -0.012785	   -0.000331	   -0.037932	   -0.022856	   -0.060789	   -0.006440	   -0.002774	   -0.009214	   -0.007095	    0.000550	   -0.006545	   -0.007502	   -0.000874	   -0.008376	   -0.016283	   -0.004494	   -0.020777	   -0.075623	   -0.052811	   -0.128434	   -0.030516	   -0.104833	   -0.135349
     1.500	0	0	    0	   -0.032227	   -0.003618	   -0.035845	   -0.010900	   -0.001475	   -0.012375	   -0.016538	    0.003121	   -0.013417	   -0.008960	    0.002352	   -0.006608	   -0.012894	    0.015653	    0.002758	    0.016234	   -0.010938	    0.005296	   -0.023781	   -0.020416	   -0.044197	   -0.050110	   -0.044832	   -0.094942	   -0.010064	   -0.001102	   -0.011167	   -0.003529	   -0.005588	   -0.009116	   -0.006326	   -0.000397	   -0.006723	   -0.007216	   -0.001063	   -0.008279	   -0.013796	    0.004130	   -0.009666	   -0.051576	   -0.042122	   -0.093698	    0.023415	   -0.005471	    0.017944	   -0.057774	   -0.044977	   -0.102751	   -0.009987	   -0.009918	   -0.019904	   -0.009737	    0.004284	   -0.005453	   -0.006668	   -0.001999	   -0.008667	   -0.020994	   -0.007973	   -0.028966	   -0.093228	   -0.090893	   -0.184121	    0.016547	   -0.036707	   -0.020160
     1.575	0	0	    0	   -0.028580	    0.001435	   -0.027145	   -0.002855	   -0.003825	   -0.006680	    0.003011	   -0.012133	   -0.009123	   -0.002859	    0.000885	   -0.001974	   -0.014789	    0.020590	    0.005800	    0.034422	   -0.023084	    0.011338	    0.034933	   -0.060329	   -0.025396	   -0.044648	   -0.045836	   -0.090484	   -0.000643	   -0.002642	   -0.003285	    0.020296	   -0.024750	   -0.004455	   -0.001709	   -0.000037	   -0.001746	   -0.005414	   -0.000560	   -0.005974	   -0.009876	    0.008153	   -0.001723	   -0.030193	   -0.042354	   -0.072547	    0.068402	    0.024596	    0.092998	   -0.045530	   -0.054428	   -0.099958	   -0.011370	   -0.002767	   -0.014137	   -0.000667	   -0.002106	   -0.002773	   -0.003466	   -0.001107	   -0.004572	   -0.015466	   -0.011453	   -0.026920	   -0.080190	   -0.101791	   -0.181981	    0.040640	   -0.001549	    0.039090
     1.650	0	0	    0	   -0.017452	   -0.016192	   -0.033644	   -0.004315	   -0.000486	   -0.004801	   -0.005739	    0.002273	   -0.003466	   -0.002393	    0.000088	   -0.002306	   -0.007719	    0.008497	    0.000777	    0.016209	   -0.013730	    0.002480	    0.016800	   -0.041026	   -0.024226	   -0.031521	   -0.057660	   -0.089181	    0.004614	   -0.004012	    0.000601	   -0.008975	   -0.000658	   -0.009634	    0.001009	    0.000081	    0.001090	   -0.002009	   -0.001667	   -0.003677	   -0.004088	    0.004291	    0.000203	   -0.044225	   -0.024330	   -0.068555	    0.022779	    0.059264	    0.082043	   -0.034657	   -0.060737	   -0.095394	   -0.000409	   -0.014251	   -0.014660	   -0.001522	   -0.004182	   -0.005704	   -0.000376	   -0.001534	   -0.001911	   -0.011951	   -0.011220	   -0.023171	   -0.075572	   -0.102595	   -0.178167	    0.067508	   -0.026289	    0.041218
     1.725	0	0	    0	   -0.002000	   -0.020576	   -0.022576	   -0.002796	   -0.002566	   -0.005362	    0.000183	   -0.002443	   -0.002260	   -0.000164	   -0.003151	   -0.003315	   -0.000566	    0.005055	    0.004488	    0.013815	    0.003545	    0.017360	    0.024646	   -0.043427	   -0.018781	   -0.000310	   -0.041787	   -0.042097	    0.006204	   -0.005345	    0.000859	    0.008367	   -0.004758	    0.003608	    0.000178	    0.001367	    0.001545	    0.000320	    0.000319	    0.000639	    0.001270	    0.003204	    0.004475	   -0.014205	   -0.058481	   -0.072685	    0.047985	   -0.022733	    0.025252	   -0.017798	   -0.053934	   -0.071732	    0.004319	   -0.012416	   -0.008097	   -0.007592	    0.005283	   -0.002309	    0.000149	    0.000254	    0.000404	   -0.005422	   -0.009700	   -0.015122	   -0.054410	   -0.101496	   -0.155906	   -0.000760	   -0.042918	   -0.043678
     1.800	0	0	    0	   -0.013888	    0.004498	   -0.009391	    0.000204	    0.001051	    0.001255	   -0.000711	    0.000875	    0.000164	    0.000962	   -0.000796	    0.000167	   -0.003819	    0.004786	    0.000967	    0.000160	    0.001668	    0.001828	    0.028840	   -0.030563	   -0.001723	   -0.003088	   -0.000702	   -0.003790	    0.004479	   -0.004035	    0.000443	   -0.002965	    0.007109	    0.004143	    0.002659	   -0.000715	    0.001943	    0.000155	    0.000322	    0.000477	   -0.001245	    0.001496	    0.000251	   -0.002530	   -0.017980	   -0.020511	    0.025135	   -0.030215	   -0.005080	    0.011602	   -0.020073	   -0.008470	    0.002711	   -0.001463	    0.001247	   -0.001958	    0.003232	    0.001275	    0.000590	    0.000130	    0.000720	    0.001667	   -0.003484	   -0.001817	    0.012310	   -0.058209	   -0.045898	    0.080612	   -0.045765	    0.034847
     1.875	0	0	    0	   -0.012831	    0.009643	   -0.003188	    0.006002	   -0.003940	    0.002062	    0.001306	    0.000174	    0.001480	    0.001655	    0.000651	    0.002306	   -0.004133	    0.003941	   -0.000192	    0.005348	   -0.001122	    0.004227	   -0.008425	    0.002091	   -0.006335	   -0.007647	    0.005065	   -0.002582	    0.004874	   -0.001524	    0.003350	    0.001285	    0.011951	    0.013236	    0.003260	   -0.000626	    0.002634	   -0.000060	    0.000085	    0.000025	    0.001770	   -0.000486	    0.001284	   -0.005741	    0.002750	   -0.002991	   -0.010920	   -0.013640	   -0.024560	    0.004506	    0.004677	    0.009183	    0.003226	   -0.000605	    0.002621	   -0.000883	    0.002266	    0.001382	    0.001162	   -0.000245	    0.000917	    0.001329	   -0.000689	    0.000640	    0.002573	   -0.002592	   -0.000019	    0.000380	   -0.028756	   -0.028376
     1.950	0	0	    0	   -0.009453	   -0.006611	   -0.016064	    0.002432	   -0.002167	    0.000265	    0.000692	   -0.004416	   -0.003724	   -0.001248	    0.000317	   -0.000931	   -0.003299	   -0.006315	   -0.009614	    0.010634	   -0.006701	    0.003934	   -0.046345	   -0.025625	   -0.071970	   -0.026515	   -0.006624	   -0.033139	    0.003619	   -0.001799	    0.001821	    0.007294	   -0.001028	    0.006266	   -0.000161	    0.001140	    0.000980	   -0.002466	   -0.001997	   -0.004463	    0.004333	   -0.008516	   -0.004183	   -0.018282	   -0.008465	   -0.026746	   -0.017661	   -0.040466	   -0.058127	   -0.017961	   -0.001118	   -0.019079	   -0.001695	    0.004081	    0.002386	   -0.011817	    0.010521	   -0.001296	   -0.002414	    0.000521	   -0.001892	   -0.002840	   -0.001039	   -0.003879	   -0.036178	   -0.019679	   -0.055857	   -0.031058	   -0.100089	   -0.131147
     2.025	0	0	    0	   -0.022142	   -0.002243	   -0.024385	   -0.001844	   -0.001828	   -0.003671	   -0.006845	    0.003216	   -0.003629	    0.000306	   -0.000596	   -0.000290	   -0.004819	    0.007369	    0.002550	    0.019736	   -0.004767	    0.014969	   -0.006176	   -0.035388	   -0.041564	   -0.034631	   -0.045221	   -0.079852	    0.000701	    0.000267	    0.000968	    0.020576	   -0.024459	   -0.003882	    0.000730	    0.000503	    0.001234	   -0.001917	   -0.002089	   -0.004007	   -0.001187	   -0.001128	   -0.002315	   -0.038023	   -0.006373	   -0.044396	    0.048554	   -0.024307	    0.024246	   -0.034741	   -0.024321	   -0.059062	   -0.011797	    0.006925	   -0.004872	   -0.002153	    0.001731	   -0.000422	   -0.001336	   -0.001885	   -0.003221	   -0.013790	   -0.004703	   -0.018493	   -0.070918	   -0.065763	   -0.136681	    0.016821	   -0.091635	   -0.074814
     2.100	0	0	    0	   -0.022310	   -0.014427	   -0.036737	   -0.000671	   -0.006532	   -0.007203	    0.002183	   -0.009780	   -0.007596	   -0.005133	    0.001879	   -0.003254	   -0.012180	    0.014795	    0.002615	    0.025134	   -0.019175	    0.005959	    0.034524	   -0.061401	   -0.026877	   -0.040081	   -0.054776	   -0.094857	    0.001388	   -0.002787	   -0.001399	    0.003670	   -0.005232	   -0.001563	   -0.001798	    0.001082	   -0.000716	   -0.003620	   -0.001731	   -0.005351	   -0.002453	    0.000538	   -0.001916	   -0.028497	   -0.040485	   -0.068981	    0.057833	    0.013989	    0.071823	   -0.041241	   -0.045743	   -0.086984	   -0.009924	    0.000657	   -0.009267	   -0.003517	    0.000655	   -0.002862	   -0.003388	   -0.002000	   -0.005388	   -0.014529	   -0.009746	   -0.024275	   -0.079222	   -0.095205	   -0.174427	    0.056659	   -0.043564	    0.013095
     2.175	0	0	    0	   -0.025446	   -0.011334	   -0.036779	   -0.004979	   -0.003942	   -0.008921	   -0.009019	    0.000235	   -0.008784	   -0.005655	    0.001913	   -0.003742	   -0.014509	    0.012185	   -0.002324	    0.011949	   -0.013105	   -0.001156	    0.026341	   -0.060008	   -0.033667	   -0.048975	   -0.052378	   -0.101353	    0.001266	   -0.002573	   -0.001307	    0.002923	   -0.005625	   -0.002702	   -0.003192	    0.000876	   -0.002316	   -0.006883	   -0.001388	   -0.008271	   -0.009913	    0.006925	   -0.002988	   -0.027986	   -0.041079	   -0.069065	    0.092919	    0.013521	    0.106440	   -0.049077	   -0.052844	   -0.101920	   -0.009009	   -0.002440	   -0.011449	   -0.015079	    0.009687	   -0.005392	   -0.004441	   -0.001745	   -0.006186	   -0.017637	   -0.009832	   -0.027469	   -0.085003	   -0.103292	   -0.188295	    0.040948	    0.004750	    0.045699
     2.250	0	0	    0	   -0.014889	   -0.015895	   -0.030784	   -0.006785	   -0.002585	   -0.009370	   -0.003733	   -0.006350	   -0.010083	   -0.005098	    0.001835	   -0.003262	   -0.020947	    0.017270	   -0.003677	    0.017305	   -0.016947	    0.000358	    0.006280	   -0.031907	   -0.025627	   -0.051373	   -0.051366	   -0.102739	   -0.001192	    0.000672	   -0.000520	   -0.005898	    0.001349	   -0.004549	   -0.002756	    0.000032	   -0.002724	   -0.006725	   -0.003565	   -0.010290	   -0.012171	    0.007397	   -0.004774	   -0.033153	   -0.043698	   -0.076850	    0.115657	   -0.002294	    0.113363	   -0.049347	   -0.055123	   -0.104470	   -0.007050	   -0.004915	   -0.011965	   -0.006450	    0.002158	   -0.004292	   -0.004652	   -0.002580	   -0.007232	   -0.018315	   -0.013180	   -0.031495	   -0.087025	   -0.107897	   -0.194922	    0.054596	   -0.003532	    0.051064
     2.325	0	0	    0	   -0.020712	   -0.008538	   -0.029250	   -0.008891	   -0.002708	   -0.011599	   -0.006548	   -0.002403	   -0.008952	   -0.003120	   -0.001918	   -0.005038	   -0.009485	    0.007646	   -0.001839	    0.016899	   -0.017399	   -0.000500	    0.006781	   -0.042966	   -0.036186	   -0.028139	   -0.054905	   -0.083044	   -0.003215	    0.000806	   -0.002409	   -0.005659	   -0.008888	   -0.014547	   -0.003309	    0.000335	   -0.002973	   -0.004746	   -0.002501	   -0.007247	   -0.012575	    0.007550	   -0.005025	   -0.062730	   -0.031098	   -0.093828	   -0.001963	    0.033859	    0.031896	   -0.045484	   -0.055291	   -0.100775	   -0.016882	    0.000262	   -0.016620	   -0.008618	    0.001689	   -0.006928	   -0.004019	   -0.002214	   -0.006232	   -0.019560	   -0.010985	   -0.030545	   -0.083155	   -0.109872	   -0.193027	   -0.002411	   -0.010952	   -0.013364
     2.400	0	0	    0	   -0.032720	    0.024718	   -0.008002	   -0.008887	   -0.001001	   -0.009888	   -0.009551	   -0.001690	   -0.011241	   -0.006354	    0.000924	   -0.005430	   -0.012801	    0.008773	   -0.004028	   -0.000124	    0.002913	    0.002789	    0.004482	   -0.043246	   -0.038764	   -0.015079	   -0.010959	   -0.026038	   -0.006263	   -0.002244	   -0.008508	    0.000275	   -0.008958	   -0.008683	   -0.004598	   -0.000053	   -0.004652	   -0.005757	    0.000359	   -0.005398	   -0.009389	    0.001855	   -0.007533	   -0.028985	   -0.038505	   -0.067490	   -0.024041	   -0.022628	   -0.046669	   -0.013919	   -0.050031	   -0.063950	    0.001474	   -0.015637	   -0.014163	   -0.012000	    0.003873	   -0.008127	   -0.004377	   -0.001927	   -0.006303	   -0.012141	   -0.009620	   -0.021760	   -0.042207	   -0.098258	   -0.140465	    0.023166	   -0.090495	   -0.067329
     2.475	0	0	    0	   -0.010239	   -0.001031	   -0.011270	    0.000509	   -0.006699	   -0.006190	   -0.004258	   -0.002631	   -0.006888	    0.000913	   -0.000945	   -0.000031	   -0.005861	    0.000620	   -0.005241	    0.007224	   -0.015517	   -0.008293	    0.000438	   -0.024202	   -0.023764	   -0.008944	   -0.005130	   -0.014073	   -0.003348	   -0.003093	   -0.006441	    0.008120	   -0.012340	   -0.004220	   -0.001907	   -0.000009	   -0.001917	   -0.001656	   -0.001418	   -0.003074	   -0.007949	   -0.007213	   -0.015162	   -0.010707	   -0.010353	   -0.021060	   -0.022997	   -0.008690	   -0.031686	   -0.001102	   -0.009095	   -0.010197	   -0.005075	   -0.001522	   -0.006597	   -0.005693	    0.003708	   -0.001985	   -0.002646	   -0.001067	   -0.003713	   -0.007981	   -0.004952	   -0.012932	   -0.003851	   -0.017264	   -0.021115	    0.006374	   -0.004905	    0.001469
     2.550	0	0	    0	   -0.007249	   -0.002056	   -0.009305	    0.007817	   -0.005567	    0.002250	    0.003495	   -0.001697	    0.001798	    0.002851	    0.000835	    0.003686	   -0.008939	    0.005097	   -0.003842	    0.020259	   -0.018746	    0.001513	   -0.003958	   -0.068570	   -0.072527	   -0.013254	   -0.008548	   -0.021801	    0.005456	   -0.003726	    0.001729	    0.015034	   -0.006254	    0.008780	    0.001672	    0.000903	    0.002575	   -0.001492	   -0.001421	   -0.002913	    0.003905	   -0.007493	   -0.003588	   -0.024227	   -0.010246	   -0.034473	   -0.059279	   -0.032196	   -0.091474	   -0.005779	   -0.004304	   -0.010083	    0.006731	   -0.003007	    0.003724	   -0.009365	    0.009521	    0.000157	    0.000131	   -0.000456	   -0.000325	   -0.000919	   -0.003323	   -0.004242	   -0.022484	   -0.005633	   -0.028117	   -0.060817	   -0.066153	   -0.126970
     2.625	0	0	    0	    0.005106	   -0.018607	   -0.013500	    0.005513	   -0.000046	    0.005466	    0.007223	   -0.002298	    0.004925	    0.008467	   -0.002007	    0.006460	   -0.000974	   -0.002490	   -0.003464	    0.040147	   -0.023450	    0.016697	    0.005448	   -0.089289	   -0.083841	   -0.026397	   -0.033967	   -0.060364	    0.006660	   -0.001638	    0.005022	    0.017156	   -0.013685	    0.003470	    0.004392	    0.000205	    0.004598	    0.000857	   -0.003788	   -0.002931	    0.003414	   -0.002991	    0.000423	   -0.009396	   -0.030334	   -0.039730	    0.013745	   -0.038399	   -0.024654	   -0.020294	   -0.020026	   -0.040320	   -0.006915	    0.007214	    0.000299	   -0.002532	   -0.001358	   -0.003891	    0.000395	   -0.000916	   -0.000521	   -0.005705	   -0.002010	   -0.007715	   -0.046852	   -0.032249	   -0.079100	   -0.015800	   -0.129670	   -0.145471
     2.700	0	0	    0	   -0.025302	    0.008019	   -0.017283	   -0.002584	    0.006707	    0.004123	   -0.004428	    0.009958	    0.005530	    0.003276	    0.004136	    0.007411	   -0.002244	    0.005859	    0.003614	    0.000266	    0.017541	    0.017807	   -0.009427	   -0.029698	   -0.039124	   -0.032399	   -0.045280	   -0.077678	    0.006418	    0.002246	    0.008665	   -0.005707	    0.017589	    0.011882	    0.004320	    0.001975	    0.006295	    0.000429	   -0.001225	   -0.000796	    0.005806	   -0.000565	    0.005241	   -0.027462	   -0.018346	   -0.045808	    0.040486	   -0.019023	    0.021463	   -0.027442	   -0.039683	   -0.067125	   -0.003391	    0.001264	   -0.002127	   -0.005637	    0.005807	    0.000170	    0.000904	   -0.000246	    0.000658	   -0.008344	   -0.006221	   -0.014566	   -0.062426	   -0.077446	   -0.139872	    0.030526	   -0.075985	   -0.045460
     2.775	0	0	    0	   -0.020879	   -0.009199	   -0.030078	    0.000578	   -0.000086	    0.000493	    0.004365	   -0.004120	    0.000245	    0.002818	    0.001301	    0.004119	   -0.011156	    0.015384	    0.004228	    0.032398	   -0.014593	    0.017804	    0.022158	   -0.035389	   -0.013231	   -0.034142	   -0.048679	   -0.082821	    0.009680	   -0.002530	    0.007150	    0.010587	    0.000973	    0.011559	    0.003890	    0.001083	    0.004974	    0.000110	   -0.001740	   -0.001630	    0.007893	   -0.002391	    0.005502	   -0.026384	   -0.036173	   -0.062556	    0.066426	    0.001691	    0.068118	   -0.028520	   -0.053587	   -0.082107	    0.009603	   -0.013180	   -0.003577	   -0.004732	    0.006264	    0.001532	    0.001254	   -0.001708	   -0.000454	   -0.008248	   -0.010742	   -0.018991	   -0.067577	   -0.095627	   -0.163204	    0.070848	   -0.034052	    0.036796
     2.850	0	0	    0	   -0.015031	   -0.015721	   -0.030752	    0.003452	   -0.004514	   -0.001062	    0.002733	   -0.000302	    0.002431	    0.003385	    0.000796	    0.004182	   -0.006666	    0.009632	    0.002966	    0.036046	   -0.022232	    0.013815	    0.043224	   -0.048170	   -0.004946	   -0.034306	   -0.054471	   -0.088778	    0.006212	    0.000769	    0.006981	    0.012629	   -0.006467	    0.006162	    0.003328	    0.001216	    0.004544	    0.000306	   -0.002082	   -0.001775	   -0.002363	    0.008433	    0.006070	   -0.031183	   -0.024970	   -0.056154	    0.084312	    0.030364	    0.114677	   -0.037278	   -0.049379	   -0.086657	   -0.006185	    0.001391	   -0.004794	    0.000596	   -0.000771	   -0.000175	    0.001517	   -0.001963	   -0.000445	   -0.011015	   -0.009073	   -0.020087	   -0.070602	   -0.101264	   -0.171866	    0.059644	   -0.012531	    0.047112
     2.925	0	0	    0	   -0.031078	   -0.001583	   -0.032661	    0.001661	   -0.005289	   -0.003627	   -0.003257	    0.001397	   -0.001859	    0.002397	    0.000984	    0.003381	   -0.013325	    0.016809	    0.003484	    0.029725	   -0.020130	    0.009595	    0.035491	   -0.054807	   -0.019316	   -0.040871	   -0.049266	   -0.090137	    0.009268	   -0.002435	    0.006833	    0.007357	   -0.006931	    0.000426	    0.002836	    0.001163	    0.003999	   -0.001824	   -0.001489	   -0.003313	   -0.000866	    0.005385	    0.004519	   -0.031518	   -0.030925	   -0.062444	    0.106623	    0.018399	    0.125022	   -0.035755	   -0.053916	   -0.089671	   -0.001175	   -0.004558	   -0.005733	   -0.000178	    0.002237	    0.002059	    0.001304	   -0.001829	   -0.000525	   -0.011094	   -0.010164	   -0.021258	   -0.072130	   -0.104717	   -0.176846	    0.086178	   -0.014903	    0.071275
     3.000	0	0	    0	   -0.009489	   -0.020950	   -0.030439	   -0.000959	   -0.004627	   -0.005586	    0.006879	   -0.010322	   -0.003443	    0.003161	   -0.002522	    0.000639	    0.002586	    0.001068	    0.003654	    0.023584	   -0.015319	    0.008265	    0.037661	   -0.055043	   -0.017382	   -0.019962	   -0.062443	   -0.082406	    0.007885	   -0.002248	    0.005637	    0.010965	   -0.024868	   -0.013902	    0.001635	    0.001957	    0.003592	    0.001850	   -0.003736	   -0.001886	    0.000606	    0.003078	    0.003683	   -0.033741	   -0.038772	   -0.072513	    0.033872	    0.041152	    0.075024	   -0.031179	   -0.056946	   -0.088125	   -0.000054	   -0.009370	   -0.009425	   -0.003805	    0.002648	   -0.001157	    0.000846	   -0.001552	   -0.000706	   -0.011538	   -0.011377	   -0.022915	   -0.069071	   -0.107476	   -0.176547	    0.059165	   -0.020746	    0.038419
     3.075	0	0	    0	   -0.023612	    0.017721	   -0.005892	    0.001394	   -0.003707	   -0.002313	    0.000575	   -0.000728	   -0.000152	   -0.001764	    0.002234	    0.000470	   -0.009396	    0.013067	    0.003671	    0.026312	   -0.011049	    0.015264	    0.027117	   -0.026471	    0.000646	   -0.002335	   -0.020788	   -0.023123	    0.001697	    0.001311	    0.003007	    0.013663	   -0.010162	    0.003501	    0.002910	    0.000250	    0.003160	   -0.000558	    0.000019	   -0.000539	   -0.009623	    0.015881	    0.006258	   -0.006463	   -0.058378	   -0.064841	    0.060395	   -0.031492	    0.028902	   -0.018012	   -0.047177	   -0.065188	   -0.001699	   -0.001907	   -0.003606	   -0.002058	    0.002482	    0.000424	    0.000841	   -0.000681	    0.000160	   -0.009507	   -0.006572	   -0.016079	   -0.054920	   -0.095627	   -0.150547	    0.036166	   -0.093222	   -0.057057
     3.150	0	0	    0	   -0.017244	    0.015244	   -0.002000	    0.005883	   -0.003826	    0.002057	    0.001577	   -0.003297	   -0.001719	    0.003883	   -0.000471	    0.003412	   -0.002205	    0.000304	   -0.001901	    0.003960	   -0.006843	   -0.002883	    0.055772	   -0.063607	   -0.007835	    0.002152	   -0.001932	    0.000220	    0.005615	   -0.003308	    0.002307	    0.015034	   -0.006254	    0.008780	    0.002810	    0.000177	    0.002986	    0.000210	   -0.001064	   -0.000854	   -0.006902	    0.004788	   -0.002115	    0.013088	   -0.026459	   -0.013371	    0.024339	   -0.029896	   -0.005557	    0.005991	   -0.003329	    0.002662	   -0.011398	    0.017852	    0.006454	   -0.005294	    0.005692	    0.000398	    0.001237	   -0.001146	    0.000092	   -0.005412	    0.000026	   -0.005386	    0.014255	   -0.044098	   -0.029843	    0.065844	   -0.023744	    0.042099
     3.225	0	0	    0	   -0.014080	    0.012155	   -0.001925	    0.004756	   -0.002851	    0.001905	    0.004731	   -0.005447	   -0.000716	    0.002300	    0.000259	    0.002559	   -0.007198	   -0.000764	   -0.007962	    0.009808	   -0.010406	   -0.000598	    0.018085	   -0.027538	   -0.009454	   -0.001288	   -0.000498	   -0.001786	    0.003096	   -0.001330	    0.001766	    0.010372	   -0.001777	    0.008595	    0.002583	    0.000112	    0.002695	   -0.000808	   -0.002792	   -0.003600	    0.000373	   -0.005501	   -0.005128	   -0.000281	   -0.005342	   -0.005624	   -0.015954	   -0.010566	   -0.026520	    0.007263	    0.001245	    0.008508	    0.001547	   -0.000962	    0.000585	   -0.003588	    0.003120	   -0.000468	   -0.000888	   -0.000883	   -0.001771	   -0.004669	   -0.001794	   -0.006463	   -0.001047	   -0.006299	   -0.007345	   -0.018530	   -0.026354	   -0.044883
     3.300	0	0	    0	   -0.007366	   -0.007422	   -0.014788	    0.000526	   -0.002611	   -0.002085	    0.000575	   -0.005151	   -0.004576	    0.003271	   -0.002873	    0.000399	   -0.003557	   -0.009022	   -0.012578	    0.004134	   -0.005202	   -0.001068	   -0.032054	   -0.039890	   -0.071944	   -0.023156	   -0.008948	   -0.032104	    0.001363	   -0.003423	   -0.002060	    0.013349	   -0.011893	    0.001456	    0.001219	   -0.000871	    0.000348	   -0.002320	   -0.003984	   -0.006304	   -0.000806	   -0.008991	   -0.009798	   -0.015555	   -0.021572	   -0.037127	   -0.012222	   -0.052894	   -0.065116	   -0.016331	   -0.007327	   -0.023658	   -0.003050	   -0.001617	   -0.004667	   -0.007095	    0.000550	   -0.006545	   -0.003344	   -0.001011	   -0.004355	   -0.008320	   -0.001493	   -0.009813	   -0.039483	   -0.026587	   -0.066071	   -0.058953	   -0.129397	   -0.188350
     3.375	0	0	    0	   -0.017922	   -0.002244	   -0.020166	   -0.001431	   -0.004085	   -0.005517	   -0.004663	   -0.001685	   -0.006348	   -0.001473	    0.001443	   -0.000030	   -0.007277	    0.007918	    0.000640	    0.027723	   -0.015710	    0.012013	    0.016932	   -0.079102	   -0.062170	   -0.038420	   -0.046092	   -0.084512	   -0.001407	   -0.001833	   -0.003240	    0.002757	   -0.011788	   -0.009031	   -0.001387	    0.000102	   -0.001285	   -0.003929	   -0.002637	   -0.006566	   -0.004810	   -0.004792	   -0.009602	   -0.036852	   -0.013848	   -0.050700	    0.038734	   -0.043335	   -0.004601	   -0.038760	   -0.025795	   -0.064555	   -0.008441	   -0.002685	   -0.011126	   -0.013497	    0.004492	   -0.009005	   -0.004896	   -0.002276	   -0.007172	   -0.017403	   -0.006324	   -0.023726	   -0.083032	   -0.061505	   -0.144536	    0.013488	   -0.135521	   -0.122033
     3.450	0	0	    0	   -0.023550	   -0.004940	   -0.028491	   -0.002882	   -0.005070	   -0.007952	   -0.003786	   -0.006708	   -0.010494	   -0.002422	    0.002431	    0.000010	   -0.008090	    0.013955	    0.005865	    0.023336	   -0.015039	    0.008296	    0.023639	   -0.051414	   -0.027775	   -0.036762	   -0.048176	   -0.084937	   -0.000199	   -0.004924	   -0.005123	   -0.006841	    0.013403	    0.006562	   -0.001031	   -0.000175	   -0.001206	   -0.001760	   -0.003381	   -0.005141	   -0.007021	   -0.000568	   -0.007588	   -0.034119	   -0.041957	   -0.076076	    0.059168	    0.000234	    0.059402	   -0.042199	   -0.054817	   -0.097016	   -0.008410	   -0.000284	   -0.008694	   -0.000704	   -0.000473	   -0.001177	   -0.004204	   -0.002243	   -0.006447	   -0.018736	   -0.010380	   -0.029116	   -0.084754	   -0.098847	   -0.183601	    0.063309	   -0.067273	   -0.003964
     3.525	0	0	    0	   -0.011410	   -0.020306	   -0.031715	    0.001253	   -0.003942	   -0.002689	    0.001158	   -0.004112	   -0.002954	    0.004039	   -0.002361	    0.001677	   -0.000039	    0.002499	    0.002460	    0.024077	   -0.015966	    0.008111	    0.026230	   -0.047300	   -0.021070	   -0.028863	   -0.058562	   -0.087425	    0.008768	   -0.006532	    0.002236	    0.000062	   -0.016378	   -0.016316	    0.000806	    0.000742	    0.001548	    0.000245	   -0.003413	   -0.003169	   -0.000305	   -0.000238	   -0.000543	   -0.026613	   -0.043782	   -0.070395	    0.114919	   -0.005059	    0.109861	   -0.033691	   -0.058453	   -0.092144	    0.005630	   -0.018005	   -0.012375	   -0.003571	   -0.001720	   -0.005291	   -0.001319	   -0.002036	   -0.003356	   -0.013050	   -0.010628	   -0.023677	   -0.075284	   -0.107412	   -0.182696	    0.068807	   -0.026810	    0.041997
     3.600	0	0	    0	   -0.012631	   -0.020527	   -0.033158	    0.002299	   -0.005253	   -0.002954	    0.004092	   -0.005976	   -0.001884	    0.003107	   -0.000338	    0.002770	    0.000408	    0.001915	    0.002322	    0.030220	   -0.026469	    0.003751	    0.029006	   -0.056044	   -0.027039	   -0.025822	   -0.062081	   -0.087903	    0.008612	   -0.001496	    0.007116	   -0.000937	   -0.000816	   -0.001753	    0.002625	    0.001050	    0.003676	    0.000889	   -0.004322	   -0.003432	   -0.003588	    0.006035	    0.002448	   -0.019164	   -0.044612	   -0.063777	    0.095878	    0.010735	    0.106614	   -0.029326	   -0.061682	   -0.091008	    0.005186	   -0.010105	   -0.004919	   -0.001856	   -0.001072	   -0.002928	    0.000954	   -0.002008	   -0.001054	   -0.011601	   -0.009087	   -0.020687	   -0.073632	   -0.105290	   -0.178922	    0.093342	   -0.037414	    0.055927
     3.675	0	0	    0	   -0.006673	   -0.008301	   -0.014974	    0.001897	   -0.003224	   -0.001327	   -0.000842	    0.002813	    0.001971	    0.000624	    0.001956	    0.002580	   -0.004881	    0.010490	    0.005609	    0.027507	   -0.008668	    0.018839	    0.040958	   -0.049250	   -0.008292	    0.007091	   -0.039037	   -0.031946	    0.008183	   -0.001721	    0.006461	    0.008993	    0.000198	    0.009191	    0.004967	   -0.000732	    0.004235	    0.003296	   -0.001922	    0.001374	    0.000362	    0.008512	    0.008874	   -0.017917	   -0.056768	   -0.074685	    0.082292	   -0.066188	    0.016104	   -0.010811	   -0.056380	   -0.067191	    0.007483	   -0.007442	    0.000042	    0.001736	    0.000653	    0.002389	    0.002175	   -0.000992	    0.001183	   -0.005939	   -0.007835	   -0.013774	   -0.051244	   -0.103160	   -0.154403	    0.043272	   -0.067793	   -0.024521
     3.750	0	0	    0	   -0.009989	    0.007915	   -0.002074	    0.011672	   -0.005973	    0.005699	    0.007797	   -0.003024	    0.004773	    0.004712	   -0.000456	    0.004256	    0.000780	    0.003297	    0.004076	    0.015637	   -0.008213	    0.007424	    0.059146	   -0.049227	    0.009919	    0.008823	   -0.006179	    0.002644	    0.009415	   -0.004865	    0.004550	    0.031682	   -0.023482	    0.008199	    0.003686	    0.000136	    0.003821	    0.002832	   -0.000627	    0.002205	    0.004926	   -0.003046	    0.001881	    0.015747	   -0.031841	   -0.016094	    0.035992	   -0.050857	   -0.014865	    0.019067	   -0.022339	   -0.003272	    0.005681	   -0.004707	    0.000975	   -0.005703	    0.007474	    0.001770	    0.002269	   -0.000977	    0.001292	    0.002655	   -0.003692	   -0.001037	    0.015158	   -0.055650	   -0.040492	    0.103411	   -0.072849	    0.030562
     3.825	0	0	    0	   -0.018135	    0.013564	   -0.004571	    0.009440	   -0.002743	    0.006697	    0.003917	   -0.000873	    0.003045	    0.004605	    0.001596	    0.006202	   -0.007305	    0.007363	    0.000058	    0.011088	   -0.006389	    0.004699	    0.019394	   -0.034754	   -0.015360	    0.000111	    0.002328	    0.002438	    0.007914	   -0.001524	    0.006391	   -0.000369	    0.010654	    0.010285	    0.003580	    0.000439	    0.004018	    0.001328	   -0.000348	    0.000981	    0.004770	   -0.000882	    0.003889	    0.007698	   -0.012137	   -0.004439	   -0.000855	   -0.024109	   -0.024964	    0.015981	   -0.003024	    0.012957	    0.000138	    0.009897	    0.010035	   -0.001752	   -0.000332	   -0.002084	    0.002194	   -0.001104	    0.001090	    0.001942	    0.000372	    0.002314	    0.007524	   -0.005427	    0.002097	    0.020125	   -0.048532	   -0.028407
     3.900	0	0	    0	   -0.018601	    0.006787	   -0.011814	    0.009458	   -0.006520	    0.002938	    0.008815	   -0.008758	    0.000058	    0.004065	   -0.000063	    0.004002	   -0.007888	    0.006214	   -0.001674	    0.025358	   -0.011771	    0.013587	   -0.016520	   -0.051350	   -0.067870	   -0.026003	   -0.003367	   -0.029370	    0.009075	   -0.003496	    0.005579	   -0.001118	    0.003749	    0.002630	    0.004445	   -0.001051	    0.003395	    0.000071	   -0.002892	   -0.002821	    0.010729	   -0.008323	    0.002406	   -0.005466	   -0.025608	   -0.031074	    0.005144	   -0.075728	   -0.070584	   -0.001886	   -0.011038	   -0.012925	    0.015967	   -0.015755	    0.000212	    0.000403	   -0.002566	   -0.002163	    0.000597	   -0.001359	   -0.000762	   -0.000792	   -0.000192	   -0.000983	   -0.025600	   -0.024230	   -0.049830	   -0.010298	   -0.134892	   -0.145189
     3.975	0	0	    0	   -0.014493	   -0.014630	   -0.029123	    0.004149	   -0.006871	   -0.002721	    0.002220	   -0.005419	   -0.003199	    0.006565	   -0.003435	    0.003130	   -0.003959	    0.000029	   -0.003930	    0.032642	   -0.020867	    0.011775	    0.011224	   -0.089409	   -0.078185	   -0.030939	   -0.054549	   -0.085488	    0.005863	   -0.003902	    0.001961	    0.003616	   -0.007991	   -0.004375	    0.004155	   -0.000323	    0.003832	   -0.001984	   -0.003098	   -0.005082	    0.004338	   -0.002990	    0.001348	   -0.022075	   -0.029993	   -0.052068	    0.057762	   -0.050630	    0.007131	   -0.029365	   -0.035897	   -0.065262	    0.002441	   -0.007573	   -0.005132	   -0.005086	   -0.000584	   -0.005671	   -0.000489	   -0.002254	   -0.002744	   -0.010433	   -0.004759	   -0.015192	   -0.068388	   -0.059375	   -0.127763	    0.012546	   -0.136169	   -0.123623
     4.050	0	0	    0	   -0.012370	   -0.022603	   -0.034973	   -0.000599	   -0.005514	   -0.006113	   -0.001382	   -0.003584	   -0.004967	    0.002394	   -0.000707	    0.001687	   -0.008251	    0.004270	   -0.003981	    0.028988	   -0.024923	    0.004066	    0.007706	   -0.048891	   -0.041186	   -0.041068	   -0.055931	   -0.096999	    0.003348	   -0.001682	    0.001666	   -0.003111	   -0.008288	   -0.011399	    0.001648	    0.000353	    0.002001	   -0.002550	   -0.003579	   -0.006129	    0.000071	    0.000495	    0.000565	   -0.022429	   -0.055694	   -0.078123	    0.073492	   -0.048976	    0.024515	   -0.036513	   -0.056711	   -0.093224	    0.005972	   -0.017410	   -0.011438	   -0.005453	   -0.000661	   -0.006114	   -0.002352	   -0.002145	   -0.004497	   -0.014028	   -0.009583	   -0.023610	   -0.076851	   -0.089999	   -0.166850	    0.054263	   -0.074225	   -0.019962
     4.125	0	0	    0	   -0.019555	   -0.010888	   -0.030443	    0.001546	   -0.007999	   -0.006453	    0.003855	   -0.009676	   -0.005821	    0.001704	    0.001225	    0.002929	   -0.013345	    0.011901	   -0.001444	    0.040261	   -0.031342	    0.008919	    0.061006	   -0.088723	   -0.027717	   -0.042335	   -0.056385	   -0.098720	    0.006147	   -0.003699	    0.002447	    0.021060	   -0.033812	   -0.012752	    0.001161	    0.000341	    0.001502	   -0.004823	   -0.002794	   -0.007618	   -0.002433	    0.004210	    0.001776	   -0.026492	   -0.043439	   -0.069932	    0.133158	   -0.024434	    0.108724	   -0.039201	   -0.061258	   -0.100460	   -0.007547	    0.000124	   -0.007423	    0.002457	   -0.006336	   -0.003879	   -0.002228	   -0.002750	   -0.004978	   -0.018197	   -0.008715	   -0.026911	   -0.080472	   -0.103070	   -0.183542	    0.083578	   -0.048823	    0.034754
     4.200	0	0	    0	   -0.015710	   -0.014866	   -0.030576	   -0.001166	   -0.007010	   -0.008176	   -0.006788	   -0.001238	   -0.008025	    0.002006	   -0.001483	    0.000523	   -0.007740	    0.007938	    0.000197	    0.021172	   -0.012294	    0.008878	    0.036015	   -0.043452	   -0.007437	   -0.035503	   -0.066056	   -0.101559	    0.004204	   -0.000990	    0.003214	    0.006503	   -0.006368	    0.000135	   -0.000210	    0.002228	    0.002019	   -0.004142	   -0.004350	   -0.008492	   -0.008526	    0.009247	    0.000721	   -0.029324	   -0.047930	   -0.077254	    0.077238	    0.029549	    0.106787	   -0.043132	   -0.061295	   -0.104427	   -0.004960	   -0.000211	   -0.005171	   -0.006596	    0.006494	   -0.000102	   -0.003277	   -0.001690	   -0.004967	   -0.020112	   -0.009425	   -0.029538	   -0.082806	   -0.108572	   -0.191378	    0.045768	   -0.011988	    0.033780
     4.275	0	0	    0	   -0.022651	    0.013744	   -0.008908	   -0.000781	   -0.005522	   -0.006303	   -0.007565	    0.001924	   -0.005641	   -0.004570	    0.004309	   -0.000261	   -0.012209	    0.010484	   -0.001724	    0.026813	   -0.013619	    0.013194	    0.023529	   -0.050676	   -0.027147	   -0.005226	   -0.042470	   -0.047696	    0.003417	   -0.003417	   -0.000000	   -0.007980	    0.009280	    0.001301	    0.000627	   -0.000407	    0.000221	   -0.002167	   -0.003472	   -0.005639	   -0.005612	    0.006946	    0.001334	   -0.025536	   -0.066379	   -0.091915	    0.054736	   -0.057366	   -0.002630	   -0.025055	   -0.060622	   -0.085677	   -0.001440	   -0.007142	   -0.008582	   -0.005118	    0.000236	   -0.004882	   -0.003541	   -0.000824	   -0.004365	   -0.015645	   -0.008840	   -0.024485	   -0.067298	   -0.106634	   -0.173933	   -0.006828	   -0.083686	   -0.090514
     4.350	0	0	    0	   -0.013540	    0.010540	   -0.003000	    0.001625	   -0.006986	   -0.005361	   -0.004149	   -0.001891	   -0.006040	    0.001236	    0.000335	    0.001571	   -0.002408	   -0.001932	   -0.004340	    0.001051	   -0.005070	   -0.004019	    0.018686	   -0.025212	   -0.006527	    0.000607	   -0.013190	   -0.012583	   -0.001951	   -0.004812	   -0.006763	    0.011936	   -0.011327	    0.000609	   -0.000899	    0.000453	   -0.000446	   -0.001336	   -0.002519	   -0.003855	   -0.006306	   -0.001496	   -0.007802	   -0.009985	   -0.033207	   -0.043192	    0.007872	   -0.048919	   -0.041047	    0.002705	   -0.021881	   -0.019176	    0.001175	   -0.004903	   -0.003728	   -0.009408	    0.004685	   -0.004723	   -0.004041	   -0.000840	   -0.004881	   -0.009308	   -0.005003	   -0.014311	    0.001509	   -0.068024	   -0.066515	    0.046003	   -0.058750	   -0.012747
     4.425	0	0	    0	   -0.008966	    0.001967	   -0.006999	    0.007738	   -0.006137	    0.001601	    0.000035	    0.002166	    0.002202	    0.005967	    0.000300	    0.006267	   -0.005917	    0.003113	   -0.002804	    0.006627	   -0.007306	   -0.000678	   -0.022713	    0.006048	   -0.016665	   -0.004236	   -0.005011	   -0.009247	    0.005808	   -0.007592	   -0.001784	    0.014422	   -0.009763	    0.004658	    0.003449	    0.000148	    0.003597	    0.000272	   -0.001545	   -0.001272	    0.002701	   -0.008587	   -0.005886	   -0.010244	   -0.008576	   -0.018820	   -0.020616	   -0.023554	   -0.044169	    0.006510	   -0.007566	   -0.001055	    0.004441	   -0.006605	   -0.002163	   -0.003674	    0.002061	   -0.001612	   -0.000864	   -0.000635	   -0.001499	   -0.003231	   -0.001882	   -0.005113	   -0.002277	   -0.009402	   -0.011679	   -0.024405	   -0.038736	   -0.063140
     4.500	0	0	    0	   -0.007754	   -0.000494	   -0.008247	    0.007386	   -0.002380	    0.005006	    0.002755	   -0.001201	    0.001555	    0.007194	   -0.001033	    0.006161	   -0.001325	   -0.000850	   -0.002175	    0.016623	   -0.010470	    0.006153	   -0.026936	   -0.043051	   -0.069988	   -0.016099	   -0.012799	   -0.028898	    0.006478	   -0.002540	    0.003938	   -0.001789	    0.011223	    0.009434	    0.004566	    0.000719	    0.005285	    0.000422	   -0.002521	   -0.002099	    0.006141	   -0.008497	   -0.002356	   -0.021492	   -0.023200	   -0.044692	    0.004882	   -0.065024	   -0.060142	   -0.008137	   -0.012817	   -0.020955	    0.005171	   -0.002037	    0.003134	   -0.003519	    0.004701	    0.001182	   -0.001327	    0.000102	   -0.001225	   -0.002140	    0.000703	   -0.001437	   -0.032644	   -0.027578	   -0.060222	   -0.014400	   -0.125890	   -0.140290
     4.575	0	0	    0	   -0.024721	    0.000097	   -0.024624	    0.007378	   -0.005243	    0.002135	    0.011467	   -0.010713	    0.000754	    0.004911	    0.000996	    0.005906	   -0.003004	    0.008778	    0.005774	    0.034537	   -0.020347	    0.014190	    0.023407	   -0.064996	   -0.041589	   -0.030804	   -0.048340	   -0.079145	    0.010243	   -0.005059	    0.005183	    0.024216	   -0.017943	    0.006273	    0.003649	    0.002589	    0.006239	    0.001442	   -0.002212	   -0.000770	    0.012243	   -0.010260	    0.001984	   -0.022938	   -0.023882	   -0.046820	    0.067933	   -0.034829	    0.033105	   -0.021867	   -0.035587	   -0.057454	    0.001999	   -0.006029	   -0.004030	   -0.003103	    0.002621	   -0.000482	    0.000206	   -0.001355	   -0.001148	   -0.006882	   -0.005352	   -0.012234	   -0.065055	   -0.065838	   -0.130893	    0.047815	   -0.103000	   -0.055185
     4.650	0	0	    0	   -0.030031	    0.006799	   -0.023232	    0.005518	   -0.003156	    0.002362	    0.003791	    0.001070	    0.004860	   -0.001151	    0.008023	    0.006873	   -0.014100	    0.025949	    0.011849	    0.030816	   -0.008877	    0.021939	    0.048043	   -0.046795	    0.001248	   -0.036855	   -0.047393	   -0.084247	    0.009347	   -0.000745	    0.008602	    0.000838	    0.008222	    0.009060	    0.003795	    0.001351	    0.005146	   -0.000825	   -0.000259	   -0.001084	    0.003394	    0.005083	    0.008477	   -0.022932	   -0.032315	   -0.055248	    0.116419	    0.007046	    0.123465	   -0.030796	   -0.051603	   -0.082399	    0.004114	   -0.007234	   -0.003119	    0.000939	   -0.000377	    0.000563	   -0.000901	   -0.001435	   -0.002337	   -0.010711	   -0.007870	   -0.018581	   -0.073670	   -0.094919	   -0.168589	    0.075963	   -0.020985	    0.054978
     4.725	0	0	    0	   -0.017452	   -0.016192	   -0.033644	    0.007619	   -0.007957	   -0.000338	    0.001860	   -0.002327	   -0.000468	    0.002397	    0.000984	    0.003381	   -0.004923	    0.009363	    0.004440	    0.026186	   -0.015727	    0.010459	    0.028406	   -0.046199	   -0.017793	   -0.034104	   -0.056101	   -0.090205	    0.009060	   -0.000950	    0.008110	    0.004460	    0.000108	    0.004569	    0.002324	    0.002118	    0.004443	   -0.000686	   -0.001939	   -0.002625	   -0.001314	    0.008591	    0.007277	   -0.021394	   -0.041744	   -0.063138	    0.132514	   -0.015854	    0.116659	   -0.031105	   -0.059802	   -0.090907	   -0.002667	   -0.002074	   -0.004741	   -0.000650	    0.002427	    0.001777	   -0.001382	   -0.000998	   -0.002379	   -0.012717	   -0.007600	   -0.020317	   -0.075429	   -0.102883	   -0.178313	    0.089754	   -0.022536	    0.067218
     4.800	0	0	    0	   -0.009240	   -0.020354	   -0.029594	    0.000162	   -0.001944	   -0.001783	   -0.006135	    0.008518	    0.002382	   -0.000362	    0.003415	    0.003053	   -0.003927	    0.013661	    0.009733	    0.007034	    0.008158	    0.015192	    0.001208	   -0.014411	   -0.013203	   -0.025991	   -0.060476	   -0.086467	    0.008791	   -0.000752	    0.008039	   -0.009391	    0.017786	    0.008395	    0.002701	    0.002186	    0.004887	    0.000554	   -0.002186	   -0.001631	    0.000004	    0.005437	    0.005441	   -0.040781	   -0.027489	   -0.068270	    0.036565	    0.046854	    0.083420	   -0.027149	   -0.063150	   -0.090299	    0.005995	   -0.012090	   -0.006095	   -0.004434	    0.004250	   -0.000183	   -0.000150	   -0.001320	   -0.001470	   -0.012897	   -0.008346	   -0.021243	   -0.071197	   -0.109033	   -0.180230	    0.057951	   -0.009958	    0.047993
     4.875	0	0	    0	   -0.003504	   -0.004004	   -0.007509	    0.001813	   -0.001396	    0.000417	    0.001964	    0.002900	    0.004864	    0.004955	   -0.000551	    0.004404	   -0.000397	    0.004167	    0.003769	    0.017597	    0.000757	    0.018353	    0.034485	   -0.033333	    0.001152	    0.005168	   -0.028279	   -0.023111	    0.006895	   -0.002720	    0.004175	   -0.014310	    0.020455	    0.006145	    0.004786	    0.000359	    0.005145	    0.001000	   -0.000540	    0.000459	    0.001515	    0.006114	    0.007630	   -0.004466	   -0.053342	   -0.057808	    0.032964	   -0.036266	   -0.003302	   -0.005742	   -0.058079	   -0.063822	    0.010026	   -0.014704	   -0.004679	    0.000278	   -0.001986	   -0.001708	   -0.000591	    0.000487	   -0.000104	   -0.007894	   -0.006347	   -0.014241	   -0.034103	   -0.106034	   -0.140137	    0.055449	   -0.075999	   -0.020550
     4.950	0	0	    0	   -0.005631	   -0.001319	   -0.006950	    0.002295	    0.001519	    0.003814	   -0.002560	    0.009425	    0.006865	    0.004068	    0.002062	    0.006130	   -0.004261	    0.005366	    0.001105	   -0.012946	    0.015213	    0.002267	   -0.001920	    0.004338	    0.002418	    0.005811	   -0.009490	   -0.003679	    0.007278	   -0.003210	    0.004068	   -0.011406	    0.019874	    0.008468	    0.004121	    0.001231	    0.005351	    0.001422	   -0.000971	    0.000450	    0.000338	   -0.000649	   -0.000311	   -0.001503	   -0.008464	   -0.009967	    0.024273	   -0.033747	   -0.009474	    0.014375	   -0.012705	    0.001670	   -0.001312	    0.003620	    0.002309	    0.000403	   -0.002566	   -0.002163	    0.000119	   -0.000149	   -0.000029	   -0.003533	    0.000493	   -0.003039	    0.016434	   -0.030674	   -0.014240	    0.062752	   -0.018476	    0.044276
     5.025	0	0	    0	   -0.010707	    0.006027	   -0.004679	    0.002938	   -0.001451	    0.001487	   -0.007866	    0.011119	    0.003253	    0.004206	   -0.000455	    0.003751	   -0.001207	    0.003362	    0.002155	   -0.008538	    0.013396	    0.004857	   -0.025597	   -0.011026	   -0.036623	   -0.008486	   -0.003711	   -0.012197	    0.004303	   -0.001930	    0.002373	   -0.018930	    0.026997	    0.008067	    0.002311	    0.002072	    0.004383	   -0.000406	   -0.000490	   -0.000896	    0.003719	   -0.003458	    0.000261	   -0.014715	   -0.003456	   -0.018171	   -0.021822	   -0.033695	   -0.055517	    0.005082	   -0.000513	    0.004568	    0.001089	    0.000612	    0.001701	   -0.001094	    0.001281	    0.000187	   -0.002389	    0.000564	   -0.001825	   -0.004292	    0.001732	   -0.002560	   -0.007447	   -0.003830	   -0.011277	   -0.023854	   -0.055205	   -0.079059
     5.100	0	0	    0	   -0.007099	   -0.004090	   -0.011189	    0.003524	   -0.004169	   -0.000645	   -0.005354	    0.003118	   -0.002236	    0.002607	   -0.000763	    0.001844	   -0.001752	    0.002755	    0.001003	    0.017031	   -0.007175	    0.009856	   -0.018986	   -0.056300	   -0.075287	   -0.034842	   -0.017728	   -0.052570	    0.000959	   -0.000005	    0.000953	    0.014726	   -0.008013	    0.006713	    0.001495	    0.000943	    0.002438	   -0.002525	   -0.001913	   -0.004439	   -0.001224	   -0.002501	   -0.003725	   -0.021535	   -0.019622	   -0.041156	    0.010054	   -0.055382	   -0.045328	   -0.019318	   -0.013932	   -0.033251	   -0.003854	    0.002838	   -0.001016	   -0.004462	    0.005079	    0.000617	   -0.004725	   -0.000118	   -0.004843	   -0.010583	    0.001347	   -0.009235	   -0.047442	   -0.030548	   -0.077990	   -0.032310	   -0.122645	   -0.154955
     5.175	0	0	    0	   -0.028276	    0.000143	   -0.028134	   -0.003454	   -0.001121	   -0.004575	   -0.001158	   -0.006502	   -0.007660	   -0.000635	   -0.001714	   -0.002349	   -0.015958	    0.023230	    0.007272	    0.021826	   -0.004480	    0.017347	    0.019096	   -0.054666	   -0.035570	   -0.041300	   -0.052894	   -0.094194	   -0.000095	   -0.002636	   -0.002731	   -0.013262	    0.024724	    0.011462	   -0.000312	    0.000838	    0.000526	   -0.004946	   -0.000944	   -0.005891	   -0.004140	    0.001511	   -0.002629	   -0.036610	   -0.033099	   -0.069709	    0.056345	   -0.043942	    0.012402	   -0.036410	   -0.041556	   -0.077966	   -0.012849	    0.008756	   -0.004093	   -0.003180	    0.001051	   -0.002128	   -0.005707	   -0.001310	   -0.007017	   -0.017969	   -0.005076	   -0.023045	   -0.083716	   -0.078905	   -0.162621	    0.044554	   -0.085590	   -0.041035
     5.250	0	0	    0	   -0.024426	   -0.009128	   -0.033554	   -0.006305	   -0.002094	   -0.008399	   -0.013832	    0.008846	   -0.004986	   -0.004689	    0.001737	   -0.002953	   -0.000566	    0.005055	    0.004488	    0.016828	   -0.008827	    0.008001	   -0.012584	   -0.013181	   -0.025766	   -0.042865	   -0.059449	   -0.102314	    0.000419	   -0.003260	   -0.002840	    0.012281	   -0.019738	   -0.007457	   -0.003159	    0.001988	   -0.001171	   -0.005639	   -0.001372	   -0.007010	   -0.006309	    0.005277	   -0.001032	   -0.041545	   -0.036092	   -0.077637	    0.079581	    0.006613	    0.086194	   -0.042475	   -0.057525	   -0.100000	   -0.007098	   -0.007282	   -0.014380	   -0.011329	    0.007079	   -0.004251	   -0.007254	   -0.001470	   -0.008724	   -0.020345	   -0.008199	   -0.028544	   -0.088024	   -0.103795	   -0.191819	    0.051205	   -0.038716	    0.012489
     5.325	0	0	    0	   -0.005902	   -0.028141	   -0.034044	   -0.001773	   -0.006254	   -0.008027	   -0.005166	   -0.005001	   -0.010167	    0.003041	   -0.003424	   -0.000383	   -0.001121	    0.007066	    0.005945	    0.021618	   -0.023266	   -0.001648	    0.019493	   -0.053617	   -0.034124	   -0.032041	   -0.060079	   -0.092120	    0.001494	   -0.003641	   -0.002147	    0.010595	   -0.019484	   -0.008889	   -0.001847	    0.000936	   -0.000911	   -0.002532	   -0.003006	   -0.005538	   -0.010128	    0.005605	   -0.004523	   -0.044119	   -0.040124	   -0.084243	    0.100964	    0.000926	    0.101891	   -0.044624	   -0.059852	   -0.104476	   -0.006725	   -0.007729	   -0.014454	   -0.004608	    0.002436	   -0.002172	   -0.005998	   -0.001293	   -0.007291	   -0.019823	   -0.010247	   -0.030070	   -0.085933	   -0.110355	   -0.196288	    0.050709	   -0.012413	    0.038296
     5.400	0	0	    0	   -0.013975	   -0.010782	   -0.024757	    0.003380	   -0.005086	   -0.001707	    0.003092	   -0.003411	   -0.000320	    0.001482	   -0.000184	    0.001298	   -0.002009	    0.012499	    0.010490	    0.030250	   -0.020780	    0.009470	    0.040420	   -0.052287	   -0.011868	   -0.024303	   -0.060521	   -0.084824	    0.006478	   -0.002540	    0.003938	    0.003610	    0.005697	    0.009307	    0.001544	    0.002025	    0.003569	   -0.001415	   -0.001397	   -0.002813	   -0.004691	    0.005378	    0.000687	   -0.035555	   -0.039048	   -0.074603	    0.038426	    0.045482	    0.083908	   -0.030403	   -0.062065	   -0.092467	    0.007645	   -0.017096	   -0.009451	   -0.001670	    0.001232	   -0.000439	   -0.002107	   -0.000458	   -0.002565	   -0.013262	   -0.010165	   -0.023428	   -0.076143	   -0.107536	   -0.183680	    0.051663	   -0.020504	    0.031159
     5.475	0	0	    0	   -0.007161	   -0.006768	   -0.013929	    0.004033	   -0.003917	    0.000116	    0.003134	    0.003233	    0.006366	    0.004601	   -0.000102	    0.004499	   -0.004398	    0.013678	    0.009280	    0.013895	    0.008368	    0.022263	    0.003131	   -0.020711	   -0.017580	    0.004855	   -0.040925	   -0.036070	    0.007474	   -0.002071	    0.005404	   -0.002166	    0.015464	    0.013298	    0.004026	    0.002574	    0.006600	    0.002224	   -0.000772	    0.001451	    0.002602	    0.006085	    0.008688	   -0.009968	   -0.063816	   -0.073785	    0.059466	   -0.038467	    0.020999	   -0.009859	   -0.057534	   -0.067393	    0.010669	   -0.017946	   -0.007277	   -0.002659	    0.003769	    0.001109	    0.000581	    0.000759	    0.001340	   -0.006258	   -0.006788	   -0.013045	   -0.050608	   -0.101321	   -0.151929	    0.036020	   -0.061925	   -0.025905
     5.550	0	0	    0	   -0.008524	    0.008896	    0.000372	    0.014190	   -0.006447	    0.007743	    0.013737	   -0.005425	    0.008312	    0.003762	    0.003947	    0.007709	   -0.000345	    0.004707	    0.004362	    0.022764	   -0.018058	    0.004706	    0.067089	   -0.073950	   -0.006861	    0.013990	   -0.008968	    0.005022	    0.010342	   -0.003225	    0.007117	    0.039275	   -0.026139	    0.013137	    0.006475	    0.002250	    0.008725	    0.001880	    0.001391	    0.003271	    0.007110	   -0.001400	    0.005710	    0.017167	   -0.035428	   -0.018261	    0.022262	   -0.040266	   -0.018004	    0.025046	   -0.023975	    0.001071	    0.010939	   -0.007863	    0.003077	    0.001172	    0.001101	    0.002273	    0.001918	    0.001109	    0.003027	    0.004113	   -0.001148	    0.002965	    0.021544	   -0.059567	   -0.038023	    0.096149	   -0.053303	    0.042846
     5.625	0	0	    0	    0.011155	   -0.007479	    0.003676	    0.009075	    0.001064	    0.010139	    0.005200	    0.004729	    0.009928	    0.009196	   -0.001644	    0.007553	   -0.005295	    0.004800	   -0.000495	   -0.004335	    0.012876	    0.008540	   -0.003748	    0.012315	    0.008567	    0.009398	   -0.005230	    0.004168	    0.010668	    0.000335	    0.011004	    0.002791	   -0.002523	    0.000268	    0.007316	    0.001629	    0.008946	    0.001337	   -0.000671	    0.000665	    0.006691	   -0.001950	    0.004741	    0.012961	   -0.008594	    0.004368	    0.000257	   -0.014760	   -0.014503	    0.018489	   -0.000149	    0.018340	    0.010939	   -0.007863	    0.003077	    0.005116	   -0.003958	    0.001158	    0.002203	    0.001153	    0.003356	    0.002412	    0.001648	    0.004060	    0.012917	   -0.003274	    0.009643	    0.013369	   -0.013861	   -0.000492
     5.700	0	0	    0	    0.003820	   -0.006737	   -0.002918	    0.013746	   -0.006120	    0.007626	    0.014446	   -0.011312	    0.003134	    0.007591	   -0.000253	    0.007339	    0.000915	   -0.008625	   -0.007710	    0.026642	   -0.021923	    0.004720	    0.005276	   -0.058591	   -0.053315	    0.005549	   -0.007514	   -0.001965	    0.009773	   -0.000681	    0.009091	    0.004594	   -0.004424	    0.000170	    0.007287	    0.000813	    0.008100	   -0.000100	   -0.002568	   -0.002668	    0.008855	   -0.005015	    0.003840	   -0.007471	   -0.016876	   -0.024347	   -0.005989	   -0.052946	   -0.058934	    0.007298	   -0.003367	    0.003931	    0.002573	    0.000760	    0.003333	    0.001139	   -0.004723	   -0.003584	   -0.000274	    0.001750	    0.001476	    0.000395	    0.000620	    0.001015	   -0.017963	   -0.018680	   -0.036643	   -0.006119	   -0.112821	   -0.118940
     5.775	0	0	    0	   -0.004202	   -0.008653	   -0.012855	    0.007053	    0.000031	    0.007084	    0.002748	    0.003293	    0.006042	    0.007260	    0.000591	    0.007851	   -0.002771	   -0.003288	   -0.006059	    0.012317	    0.000598	    0.012915	   -0.030306	   -0.031671	   -0.061977	   -0.019038	   -0.024525	   -0.043563	    0.008564	    0.000251	    0.008814	   -0.004672	    0.020452	    0.015780	    0.007617	    0.001372	    0.008989	   -0.000644	   -0.002796	   -0.003439	    0.006949	   -0.005526	    0.001423	   -0.012145	   -0.018459	   -0.030604	    0.031567	   -0.022794	    0.008773	   -0.004486	   -0.021779	   -0.026265	    0.002327	   -0.001003	    0.001324	   -0.004663	    0.004086	   -0.000577	   -0.000188	   -0.000029	   -0.000217	   -0.009175	    0.000437	   -0.008738	   -0.044423	   -0.045352	   -0.089776	    0.015233	   -0.130346	   -0.115112
     5.850	0	0	    0	   -0.009998	   -0.014959	   -0.024956	    0.008730	   -0.007125	    0.001606	    0.008435	   -0.005162	    0.003273	    0.006489	   -0.000784	    0.005705	    0.002612	   -0.006456	   -0.003844	    0.030102	   -0.019646	    0.010456	    0.030952	   -0.079467	   -0.048515	   -0.018329	   -0.057698	   -0.076026	    0.006557	   -0.000857	    0.005700	    0.008821	   -0.013320	   -0.004498	    0.007384	    0.001224	    0.008608	   -0.000119	   -0.003143	   -0.003263	    0.005034	   -0.002028	    0.003006	   -0.019287	   -0.034374	   -0.053660	    0.070999	   -0.056876	    0.014122	   -0.023013	   -0.035413	   -0.058426	    0.001217	   -0.009448	   -0.008231	    0.000060	   -0.002957	   -0.002896	   -0.000627	   -0.000522	   -0.001148	   -0.011321	   -0.005872	   -0.017192	   -0.061246	   -0.080017	   -0.141263	    0.056387	   -0.097241	   -0.040854
     5.925	0	0	    0	   -0.008635	   -0.014890	   -0.023524	    0.006388	   -0.006424	   -0.000035	    0.009009	   -0.005884	    0.003125	    0.005824	    0.001122	    0.006946	   -0.009273	    0.003707	   -0.005565	    0.045818	   -0.036280	    0.009539	    0.052858	   -0.076854	   -0.023996	   -0.028106	   -0.055285	   -0.083390	    0.007516	   -0.001271	    0.006246	    0.021472	   -0.018392	    0.003080	    0.006447	    0.001979	    0.008426	   -0.002658	   -0.002051	   -0.004709	   -0.001086	    0.004605	    0.003519	   -0.018851	   -0.055222	   -0.074073	    0.067906	   -0.027470	    0.040436	   -0.023974	   -0.053714	   -0.077688	   -0.009426	    0.003952	   -0.005474	    0.000620	   -0.001593	   -0.000973	   -0.001440	   -0.000006	   -0.001446	   -0.016454	   -0.005008	   -0.021462	   -0.068438	   -0.096409	   -0.164847	    0.060548	   -0.047974	    0.012574
     6.000	0	0	    0	   -0.010730	   -0.021161	   -0.031891	    0.007026	   -0.008767	   -0.001741	    0.011874	   -0.015239	   -0.003365	    0.005371	   -0.001927	    0.003445	   -0.007905	   -0.000488	   -0.008394	    0.045479	   -0.040715	    0.004765	    0.066038	   -0.094991	   -0.028953	   -0.029674	   -0.059659	   -0.089334	    0.007332	   -0.002173	    0.005159	    0.024877	   -0.021866	    0.003011	    0.005304	    0.001914	    0.007218	   -0.002803	   -0.003156	   -0.005960	   -0.003417	    0.003702	    0.000285	   -0.026337	   -0.049322	   -0.075659	    0.041125	    0.005458	    0.046583	   -0.026455	   -0.057740	   -0.084195	   -0.003929	   -0.002016	   -0.005945	   -0.003073	    0.001794	   -0.001279	   -0.001591	   -0.000094	   -0.001685	   -0.016630	   -0.008366	   -0.024995	   -0.070955	   -0.102299	   -0.173254	    0.063512	   -0.053752	    0.009759
     6.075	0	0	    0	   -0.018642	   -0.006704	   -0.025347	    0.000277	   -0.002968	   -0.002691	   -0.007124	    0.006216	   -0.000909	    0.002221	    0.001844	    0.004065	   -0.007740	    0.007938	    0.000197	    0.014035	   -0.005348	    0.008687	    0.007807	   -0.029635	   -0.021829	   -0.032217	   -0.055379	   -0.087595	    0.004752	   -0.001309	    0.003443	   -0.000591	    0.008794	    0.008204	    0.005810	    0.001753	    0.007563	   -0.003476	   -0.002111	   -0.005588	   -0.003075	    0.003048	   -0.000027	   -0.028325	   -0.055016	   -0.083341	    0.077720	   -0.049690	    0.028031	   -0.029517	   -0.056048	   -0.085565	   -0.003600	   -0.004865	   -0.008465	   -0.003181	    0.005103	    0.001922	   -0.001041	    0.000301	   -0.000740	   -0.016382	   -0.008342	   -0.024724	   -0.066549	   -0.105219	   -0.171769	    0.032935	   -0.081165	   -0.048230
     6.150	0	0	    0	   -0.015346	   -0.006389	   -0.021735	    0.003456	   -0.006898	   -0.003442	   -0.000136	    0.003742	    0.003606	    0.002024	    0.003795	    0.005820	   -0.012190	    0.011047	   -0.001143	    0.030209	   -0.016891	    0.013318	    0.045413	   -0.070782	   -0.025369	   -0.031405	   -0.053635	   -0.085040	    0.003613	   -0.001877	    0.001736	    0.020678	   -0.015810	    0.004868	    0.005593	    0.001694	    0.007287	   -0.004658	   -0.001705	   -0.006364	   -0.002193	    0.000106	   -0.002087	   -0.016438	   -0.056235	   -0.072673	    0.058876	   -0.039637	    0.019239	   -0.027937	   -0.058418	   -0.086354	   -0.001825	   -0.007556	   -0.009381	   -0.008331	    0.006652	   -0.001679	   -0.001586	    0.000717	   -0.000869	   -0.015859	   -0.006223	   -0.022082	   -0.058523	   -0.094279	   -0.152802	    0.017942	   -0.125453	   -0.107512
     6.225	0	0	    0	   -0.030805	    0.002463	   -0.028342	   -0.001798	   -0.002738	   -0.004536	   -0.001784	    0.003989	    0.002205	    0.002867	    0.003155	    0.006021	   -0.006977	    0.002010	   -0.004967	    0.016309	   -0.006260	    0.010050	    0.004086	   -0.048173	   -0.044086	   -0.026808	   -0.057316	   -0.084125	    0.001050	   -0.001347	   -0.000297	   -0.009573	    0.007996	   -0.001577	    0.003619	    0.003093	    0.006712	   -0.005954	   -0.001957	   -0.007911	   -0.005648	    0.002581	   -0.003067	   -0.024867	   -0.038568	   -0.063435	    0.034052	   -0.026568	    0.007484	   -0.027518	   -0.057740	   -0.085258	   -0.010117	    0.000452	   -0.009665	   -0.009183	    0.004851	   -0.004332	   -0.003644	    0.002026	   -0.001619	   -0.018104	   -0.004760	   -0.022863	   -0.058808	   -0.087917	   -0.146725	    0.001739	   -0.131186	   -0.129447
     6.300	0	0	    0	   -0.013754	   -0.002984	   -0.016738	   -0.000365	   -0.002774	   -0.003139	   -0.000271	   -0.000978	   -0.001249	    0.007911	    0.000417	    0.008328	   -0.009243	    0.004253	   -0.004990	    0.014942	   -0.001719	    0.013223	    0.013489	   -0.064062	   -0.050573	   -0.008461	   -0.054173	   -0.062635	    0.000010	   -0.000007	    0.000003	    0.008770	   -0.008906	   -0.000136	    0.006556	    0.001076	    0.007632	   -0.002884	   -0.003253	   -0.006137	   -0.008242	    0.005106	   -0.003136	   -0.021746	   -0.032372	   -0.054118	    0.057047	   -0.043816	    0.013232	   -0.028550	   -0.053977	   -0.082527	   -0.006110	   -0.005608	   -0.011717	    0.004438	   -0.004250	    0.000188	   -0.001713	    0.001329	   -0.000384	   -0.017226	   -0.005000	   -0.022226	   -0.053178	   -0.087054	   -0.140232	    0.018605	   -0.142685	   -0.124080
     6.375	0	0	    0	    0.006333	   -0.011787	   -0.005455	    0.011021	   -0.004053	    0.006968	    0.012415	   -0.006072	    0.006343	    0.010553	   -0.001211	    0.009342	   -0.002268	   -0.005775	   -0.008044	    0.014898	   -0.004447	    0.010451	    0.063168	   -0.080452	   -0.017284	    0.013448	   -0.031063	   -0.017616	    0.007017	   -0.002854	    0.004164	    0.007829	    0.023553	    0.031382	    0.009159	    0.001338	    0.010497	    0.001902	   -0.003499	   -0.001597	    0.007048	   -0.007632	   -0.000584	    0.007136	   -0.032403	   -0.025267	    0.058761	   -0.039177	    0.019584	    0.001406	   -0.052697	   -0.051291	    0.000344	   -0.002007	   -0.001663	    0.000321	    0.005811	    0.006131	    0.002012	    0.001538	    0.003550	   -0.007232	   -0.004438	   -0.011670	   -0.013194	   -0.084706	   -0.097900	    0.063639	   -0.144406	   -0.080767
     6.450	0	0	    0	   -0.012483	    0.012945	    0.000462	    0.012192	    0.000747	    0.012939	    0.007495	    0.000989	    0.008484	    0.008787	    0.002102	    0.010889	   -0.008649	   -0.000747	   -0.009397	   -0.007785	    0.007810	    0.000025	    0.029204	   -0.001587	    0.027617	    0.013909	   -0.008822	    0.005087	    0.009911	   -0.000741	    0.009170	    0.001005	    0.024971	    0.025976	    0.011064	    0.001096	    0.012160	    0.002275	   -0.000532	    0.001743	    0.007869	   -0.003950	    0.003919	    0.019572	   -0.003392	    0.016180	    0.088388	   -0.049021	    0.039366	    0.022554	   -0.029824	   -0.007270	   -0.003915	    0.006425	    0.002511	    0.004966	    0.000084	    0.005049	    0.003494	    0.001792	    0.005286	    0.001222	   -0.000325	    0.000897	    0.011504	   -0.048898	   -0.037394	    0.092574	   -0.115189	   -0.022616
     6.525	0	0	    0	   -0.003504	   -0.004004	   -0.007509	    0.013905	   -0.001159	    0.012746	    0.009198	    0.003839	    0.013037	    0.009247	    0.002382	    0.011629	    0.000796	   -0.007234	   -0.006437	    0.004737	   -0.003114	    0.001623	    0.038982	   -0.013304	    0.025677	    0.010662	   -0.009335	    0.001328	    0.013954	   -0.004048	    0.009906	    0.018375	    0.005408	    0.023783	    0.009630	    0.003054	    0.012684	    0.003936	    0.000308	    0.004244	    0.011851	   -0.009256	    0.002595	    0.035915	   -0.004323	    0.031592	    0.059574	   -0.026046	    0.033528	    0.022131	   -0.012097	    0.010034	    0.010060	   -0.004740	    0.005320	    0.000312	    0.006122	    0.006434	    0.003114	    0.003022	    0.006136	    0.004572	    0.001743	    0.006315	    0.008895	   -0.029807	   -0.020913	    0.045966	   -0.093100	   -0.047134
     6.600	0	0	    0	   -0.004223	   -0.003104	   -0.007327	    0.007697	    0.003452	    0.011149	   -0.003552	    0.014719	    0.011166	    0.004655	    0.005174	    0.009829	    0.000858	    0.001329	    0.002187	    0.010702	    0.013275	    0.023977	   -0.006375	   -0.006682	   -0.013057	   -0.014792	   -0.019938	   -0.034730	    0.009892	   -0.001062	    0.008830	    0.016611	    0.004157	    0.020767	    0.008334	    0.001576	    0.009910	    0.002758	    0.000582	    0.003340	    0.011797	   -0.005758	    0.006039	    0.001256	   -0.000708	    0.000548	    0.070582	   -0.037076	    0.033507	    0.000696	   -0.019600	   -0.018904	    0.000397	    0.006466	    0.006863	   -0.001204	    0.005623	    0.004419	    0.001867	    0.001438	    0.003305	   -0.001293	    0.002478	    0.001185	   -0.012824	   -0.041531	   -0.054355	    0.039386	   -0.120999	   -0.081613
     6.675	0	0	    0	   -0.008819	   -0.010137	   -0.018956	    0.006024	   -0.000251	    0.005772	    0.004758	   -0.001010	    0.003747	    0.006918	   -0.000471	    0.006447	   -0.006686	    0.005902	   -0.000785	    0.023105	   -0.005143	    0.017962	    0.038233	   -0.063516	   -0.025283	   -0.016191	   -0.053171	   -0.069363	    0.006683	   -0.001157	    0.005526	    0.018912	   -0.008073	    0.010839	    0.006202	    0.001784	    0.007985	    0.001762	    0.000126	    0.001888	    0.009784	   -0.003436	    0.006349	   -0.008916	   -0.031566	   -0.040482	    0.101274	   -0.060450	    0.040824	   -0.015708	   -0.037030	   -0.052738	    0.001618	   -0.005572	   -0.003954	   -0.003866	    0.004816	    0.000950	   -0.000190	    0.000588	    0.000399	   -0.006241	   -0.003230	   -0.009471	   -0.042790	   -0.076791	   -0.119581	    0.081470	   -0.100373	   -0.018903
     6.750	0	0	    0	   -0.007308	   -0.012052	   -0.019361	    0.003147	   -0.000633	    0.002515	    0.003887	   -0.003041	    0.000846	   -0.001319	    0.004836	    0.003517	   -0.005216	    0.009068	    0.003852	    0.024466	   -0.003920	    0.020546	    0.055112	   -0.056263	   -0.001151	   -0.023752	   -0.054775	   -0.078527	    0.008352	   -0.003918	    0.004434	   -0.007149	    0.026923	    0.019773	    0.004896	   -0.000455	    0.004441	    0.001686	   -0.000097	    0.001589	    0.010127	   -0.001636	    0.008491	   -0.006876	   -0.054332	   -0.061208	    0.122654	   -0.057945	    0.064709	   -0.016642	   -0.055587	   -0.072229	    0.011371	   -0.015872	   -0.004501	   -0.001224	    0.001867	    0.000643	   -0.000357	   -0.002055	   -0.002412	   -0.008330	   -0.005523	   -0.013854	   -0.050791	   -0.095776	   -0.146566	    0.118322	   -0.077961	    0.040361
     6.825	0	0	    0	   -0.010939	   -0.011963	   -0.022902	    0.001505	   -0.003815	   -0.002310	   -0.000988	   -0.000101	   -0.001089	    0.001594	   -0.000537	    0.001057	   -0.006871	    0.014227	    0.007356	    0.020056	   -0.003280	    0.016776	    0.060568	   -0.063059	   -0.002491	   -0.027254	   -0.053914	   -0.081169	    0.005403	   -0.004838	    0.000565	    0.005984	    0.005970	    0.011954	    0.001325	   -0.000418	    0.000907	    0.000488	    0.000117	    0.000604	    0.004596	    0.004647	    0.009243	   -0.013503	   -0.049665	   -0.063168	    0.094730	   -0.015553	    0.079177	   -0.019616	   -0.061014	   -0.080630	   -0.000769	    0.000921	    0.000152	   -0.004462	    0.005079	    0.000617	   -0.002322	   -0.002153	   -0.004475	   -0.009723	   -0.007576	   -0.017300	   -0.054518	   -0.104793	   -0.159311	    0.121124	   -0.065779	    0.055345
     6.900	0	0	    0	   -0.016993	   -0.010574	   -0.027567	    0.004636	   -0.009883	   -0.005248	    0.003214	   -0.005328	   -0.002114	   -0.000531	    0.001726	    0.001195	   -0.006509	    0.011369	    0.004859	    0.028701	   -0.015011	    0.013690	    0.083764	   -0.098257	   -0.014493	   -0.030511	   -0.056771	   -0.087282	    0.004238	   -0.006111	   -0.001873	    0.007486	   -0.015740	   -0.008254	    0.000440	   -0.000548	   -0.000108	   -0.001039	   -0.000496	   -0.001535	    0.004578	    0.000765	    0.005343	   -0.016964	   -0.055803	   -0.072767	    0.089903	   -0.020227	    0.069676	   -0.021497	   -0.064798	   -0.086295	    0.008061	   -0.018600	   -0.010539	   -0.003107	   -0.001906	   -0.005013	   -0.002110	   -0.003100	   -0.005210	   -0.010566	   -0.009080	   -0.019646	   -0.057127	   -0.108650	   -0.165777	    0.104167	   -0.066104	    0.038063
     6.975	0	0	    0	   -0.011961	   -0.021376	   -0.033336	   -0.001735	   -0.006250	   -0.007985	   -0.006859	    0.001058	   -0.005801	   -0.001085	   -0.001567	   -0.002651	   -0.003129	    0.003957	    0.000828	    0.024700	   -0.015766	    0.008934	    0.065263	   -0.089962	   -0.024699	   -0.030495	   -0.061364	   -0.091859	   -0.001208	   -0.003367	   -0.004575	    0.009552	   -0.018644	   -0.009092	   -0.000331	   -0.001485	   -0.001816	   -0.002828	   -0.000432	   -0.003260	   -0.005681	    0.008582	    0.002901	   -0.023385	   -0.053970	   -0.077356	    0.081289	   -0.028557	    0.052732	   -0.032387	   -0.059278	   -0.091666	   -0.009948	   -0.001748	   -0.011696	   -0.004593	   -0.001588	   -0.006181	   -0.003146	   -0.002548	   -0.005694	   -0.015253	   -0.006407	   -0.021660	   -0.061865	   -0.107771	   -0.169637	    0.083025	   -0.066048	    0.016977
     7.050	0	0	    0	   -0.025914	   -0.001956	   -0.027871	   -0.002756	   -0.007764	   -0.010520	   -0.005728	    0.001393	   -0.004335	   -0.002913	    0.002003	   -0.000910	   -0.014201	    0.018550	    0.004349	    0.035286	   -0.021286	    0.014000	    0.064695	   -0.083646	   -0.018951	   -0.028184	   -0.062235	   -0.090419	   -0.003056	   -0.002252	   -0.005308	    0.006360	   -0.009091	   -0.002731	   -0.001785	   -0.000099	   -0.001884	   -0.004849	   -0.000468	   -0.005317	   -0.006071	    0.008008	    0.001937	   -0.024565	   -0.059175	   -0.083740	    0.079957	   -0.024851	    0.055106	   -0.035993	   -0.058502	   -0.094494	   -0.009907	    0.003081	   -0.006825	   -0.003259	   -0.000510	   -0.003768	   -0.003221	   -0.002063	   -0.005285	   -0.016939	   -0.006645	   -0.023584	   -0.060039	   -0.112771	   -0.172811	    0.099256	   -0.091844	    0.007412
     7.125	0	0	    0	   -0.010454	   -0.011671	   -0.022126	   -0.003541	   -0.007019	   -0.010560	   -0.004535	   -0.005344	   -0.009879	   -0.001479	   -0.002111	   -0.003590	    0.000271	   -0.000254	    0.000017	    0.022341	   -0.007076	    0.015265	    0.064695	   -0.083646	   -0.018951	    0.009576	   -0.049992	   -0.040416	   -0.003409	   -0.004830	   -0.008238	    0.032980	   -0.036484	   -0.003503	   -0.000601	   -0.001181	   -0.001782	   -0.002327	   -0.001787	   -0.004114	   -0.002350	    0.005565	    0.003215	    0.000973	   -0.065441	   -0.064467	    0.095077	   -0.071072	    0.024005	   -0.018777	   -0.058918	   -0.077695	    0.002949	   -0.014662	   -0.011713	   -0.008161	    0.005232	   -0.002929	   -0.002945	   -0.001204	   -0.004148	   -0.012556	   -0.007899	   -0.020455	   -0.044991	   -0.104617	   -0.149609	    0.083539	   -0.138767	   -0.055228
     7.200	0	0	    0	   -0.012858	   -0.005896	   -0.018754	   -0.000452	   -0.007647	   -0.008099	    0.005303	   -0.011907	   -0.006604	   -0.005325	    0.002123	   -0.003202	   -0.011899	    0.000915	   -0.010984	    0.011224	   -0.017724	   -0.006500	    0.084615	   -0.095564	   -0.010949	    0.001298	   -0.017752	   -0.016454	   -0.003999	   -0.005769	   -0.009768	    0.015727	   -0.021816	   -0.006089	   -0.001220	   -0.000398	   -0.001618	   -0.004758	    0.000406	   -0.004352	   -0.005632	    0.000311	   -0.005321	    0.018233	   -0.037358	   -0.019125	    0.059821	   -0.070957	   -0.011136	    0.012496	   -0.024942	   -0.012446	   -0.006633	   -0.002979	   -0.009613	   -0.006762	    0.000946	   -0.005817	   -0.004075	   -0.000013	   -0.004089	   -0.008616	   -0.002363	   -0.010979	    0.024356	   -0.060808	   -0.036452	    0.099151	   -0.083394	    0.015757
     7.275	0	0	    0	   -0.002942	   -0.010251	   -0.013193	   -0.001752	   -0.004101	   -0.005853	   -0.001382	   -0.003584	   -0.004967	    0.001560	   -0.004075	   -0.002514	   -0.003686	   -0.005224	   -0.008909	    0.011369	   -0.010422	    0.000947	    0.028764	   -0.057197	   -0.028434	    0.004885	   -0.015770	   -0.010885	   -0.003542	   -0.004772	   -0.008314	    0.024627	   -0.031735	   -0.007108	   -0.001577	   -0.000378	   -0.001955	   -0.004336	   -0.001513	   -0.005849	   -0.003266	   -0.003659	   -0.006924	    0.007824	   -0.022578	   -0.014754	    0.024154	   -0.068443	   -0.044289	    0.008250	   -0.006394	    0.001856	    0.003191	   -0.011058	   -0.007867	   -0.007001	    0.001294	   -0.005707	   -0.004862	   -0.000063	   -0.004925	   -0.007304	   -0.001982	   -0.009286	    0.006574	   -0.020456	   -0.013882	    0.016745	   -0.090424	   -0.073679
     7.350	0	0	    0	   -0.015982	    0.009926	   -0.006055	   -0.000297	   -0.002884	   -0.003180	   -0.008406	    0.004715	   -0.003690	   -0.000225	    0.000706	    0.000481	   -0.007996	    0.001451	   -0.006546	    0.014257	   -0.006550	    0.007707	   -0.011618	   -0.068391	   -0.080009	   -0.010971	   -0.014973	   -0.025944	   -0.002273	   -0.006272	   -0.008546	   -0.005990	    0.014320	    0.008331	    0.000011	   -0.000923	   -0.000911	   -0.003896	   -0.001488	   -0.005384	    0.000322	   -0.012293	   -0.011972	    0.004529	   -0.043412	   -0.038883	    0.039255	   -0.102985	   -0.063730	   -0.012722	   -0.014957	   -0.027679	    0.005565	   -0.010560	   -0.004996	   -0.007860	    0.003232	   -0.004628	   -0.003825	   -0.000818	   -0.004643	   -0.009879	   -0.001556	   -0.011435	   -0.026147	   -0.045894	   -0.072041	    0.022423	   -0.169351	   -0.146928
     7.425	0	0	    0	   -0.018470	   -0.006038	   -0.024508	    0.005805	   -0.006790	   -0.000984	    0.005091	   -0.005888	   -0.000796	   -0.001107	    0.001189	    0.000083	   -0.005836	    0.007357	    0.001522	    0.026645	   -0.012454	    0.014191	    0.051384	   -0.108118	   -0.056735	   -0.022277	   -0.047282	   -0.069560	    0.001592	   -0.004570	   -0.002978	    0.021040	   -0.017086	    0.003954	    0.002695	    0.000015	    0.002710	   -0.001798	   -0.001234	   -0.003032	    0.003799	   -0.005393	   -0.001593	   -0.008238	   -0.031838	   -0.040076	    0.105884	   -0.085207	    0.020677	   -0.016533	   -0.033601	   -0.050134	   -0.005167	   -0.006301	   -0.011469	    0.003964	   -0.006661	   -0.002697	   -0.001231	   -0.001767	   -0.002999	   -0.010791	   -0.006027	   -0.016818	   -0.047274	   -0.079349	   -0.126624	    0.096203	   -0.165968	   -0.069765
     7.500	0	0	    0	   -0.021518	   -0.004853	   -0.026371	    0.003191	   -0.002242	    0.000950	   -0.001108	    0.005826	    0.004719	   -0.000651	    0.003357	    0.002706	   -0.009098	    0.013937	    0.004839	    0.015413	    0.003538	    0.018950	    0.055895	   -0.064267	   -0.008372	   -0.026786	   -0.051310	   -0.078097	    0.007075	   -0.004425	    0.002651	    0.004607	    0.007949	    0.012556	    0.003436	    0.000954	    0.004389	   -0.003356	   -0.000159	   -0.003515	    0.005377	    0.002061	    0.007438	   -0.012079	   -0.049836	   -0.061915	    0.114707	   -0.034497	    0.080211	   -0.016916	   -0.054288	   -0.071203	    0.010126	   -0.018748	   -0.008622	    0.001027	    0.001190	    0.002217	   -0.000745	   -0.000578	   -0.001324	   -0.010847	   -0.006080	   -0.016927	   -0.053739	   -0.101111	   -0.154850	    0.132803	   -0.081122	    0.051681
     7.575	0	0	    0	   -0.028764	    0.006132	   -0.022632	    0.003261	   -0.001663	    0.001598	    0.008640	   -0.003165	    0.005475	   -0.001160	    0.002732	    0.001572	   -0.008531	    0.013956	    0.005425	    0.025668	   -0.013160	    0.012508	    0.049817	   -0.059917	   -0.010100	   -0.027567	   -0.054895	   -0.082462	    0.007112	   -0.001014	    0.006097	    0.011580	   -0.014426	   -0.002846	    0.003057	    0.000846	    0.003903	   -0.002576	   -0.000462	   -0.003039	    0.000566	    0.010038	    0.010604	   -0.006652	   -0.050673	   -0.057325	    0.162805	   -0.046397	    0.116408	   -0.021292	   -0.055550	   -0.076842	   -0.004050	   -0.003320	   -0.007370	    0.003557	   -0.001989	    0.001568	    0.000024	   -0.002048	   -0.002024	   -0.010197	   -0.007367	   -0.017565	   -0.055590	   -0.109418	   -0.165007	    0.148077	   -0.075433	    0.072645
     7.650	0	0	    0	   -0.004839	   -0.018772	   -0.023611	    0.001183	   -0.004287	   -0.003104	    0.000766	   -0.001394	   -0.000628	   -0.000750	    0.000320	   -0.000430	   -0.002969	    0.003080	    0.000111	    0.030594	   -0.016407	    0.014187	    0.056403	   -0.060637	   -0.004235	    0.000108	   -0.063152	   -0.063044	    0.005536	   -0.002053	    0.003483	    0.023667	   -0.028184	   -0.004517	    0.003034	   -0.000017	    0.003017	   -0.000244	   -0.002186	   -0.002430	    0.006327	    0.003648	    0.009975	   -0.014527	   -0.059862	   -0.074390	    0.094608	   -0.063137	    0.031471	   -0.017446	   -0.059468	   -0.076913	   -0.002584	   -0.006649	   -0.009233	   -0.004185	   -0.000641	   -0.004826	   -0.000181	   -0.001311	   -0.001492	   -0.008094	   -0.009026	   -0.017119	   -0.044264	   -0.111225	   -0.155488	    0.074328	   -0.071217	    0.003111
     7.725	0	0	    0	    0.008627	   -0.021209	   -0.012582	    0.003818	   -0.004954	   -0.001135	    0.004207	   -0.002575	    0.001632	    0.004075	   -0.003467	    0.000608	    0.006856	   -0.011214	   -0.004358	    0.016122	   -0.010747	    0.005375	    0.072104	   -0.081738	   -0.009634	    0.024675	   -0.030058	   -0.005383	    0.006993	   -0.006089	    0.000904	   -0.001495	   -0.005713	   -0.007209	    0.003868	   -0.000913	    0.002956	    0.000501	   -0.002226	   -0.001725	    0.002842	    0.003514	    0.006356	    0.021867	   -0.049963	   -0.028095	    0.072926	   -0.093095	   -0.020169	    0.023649	   -0.048295	   -0.024645	    0.018444	   -0.029645	   -0.011201	   -0.005247	    0.000817	   -0.004429	    0.000583	   -0.001092	   -0.000509	   -0.000303	   -0.007297	   -0.007600	    0.015005	   -0.096861	   -0.081855	    0.134745	   -0.126744	    0.008001
     7.800	0	0	    0	   -0.006190	   -0.002468	   -0.008658	    0.005378	   -0.003395	    0.001983	    0.003377	    0.002035	    0.005412	    0.004490	   -0.002087	    0.002403	   -0.007008	    0.001468	   -0.005540	    0.005601	   -0.002343	    0.003258	    0.050014	   -0.046893	    0.003121	    0.017373	   -0.013606	    0.003767	    0.007502	   -0.004283	    0.003219	    0.026427	   -0.013685	    0.012742	    0.003713	    0.000270	    0.003983	    0.000274	   -0.001743	   -0.001469	    0.008308	   -0.002549	    0.005759	    0.031025	   -0.031164	   -0.000139	    0.054776	   -0.058486	   -0.003710	    0.024590	   -0.007641	    0.016949	    0.007235	   -0.005673	    0.001563	   -0.002692	    0.004601	    0.001910	    0.001010	   -0.000745	    0.000265	    0.002950	   -0.000520	    0.002430	    0.029108	   -0.022865	    0.006242	    0.073476	   -0.072632	    0.000844
     7.875	0	0	    0	   -0.013693	    0.005185	   -0.008508	    0.005563	   -0.003617	    0.001947	    0.006261	   -0.002904	    0.003357	   -0.001330	    0.004215	    0.002885	   -0.005927	   -0.003007	   -0.008934	    0.027080	   -0.024398	    0.002682	    0.034723	   -0.099497	   -0.064775	   -0.004914	   -0.013900	   -0.018814	    0.003615	   -0.001960	    0.001655	    0.021015	   -0.018494	    0.002522	    0.004354	   -0.001201	    0.003153	   -0.002077	   -0.002481	   -0.004557	    0.003178	   -0.002733	    0.000445	    0.019278	   -0.048053	   -0.028776	    0.021919	   -0.098033	   -0.076114	    0.003392	   -0.005432	   -0.002040	    0.001684	   -0.003171	   -0.001487	   -0.004010	    0.001664	   -0.002347	   -0.000739	   -0.001244	   -0.001983	   -0.000418	   -0.000410	   -0.000828	   -0.007712	   -0.028866	   -0.036578	    0.012940	   -0.152025	   -0.139085
     7.950	0	0	    0	   -0.011785	   -0.016277	   -0.028062	    0.001658	   -0.005514	   -0.003856	   -0.000447	   -0.002977	   -0.003424	    0.000065	   -0.000923	   -0.000858	   -0.006175	   -0.000211	   -0.006386	    0.038275	   -0.028863	    0.009411	    0.033212	   -0.106808	   -0.073596	   -0.025733	   -0.056540	   -0.082273	    0.004242	   -0.003204	    0.001038	    0.000700	   -0.000982	   -0.000281	    0.001961	   -0.000446	    0.001515	   -0.003066	   -0.003626	   -0.006693	    0.004669	   -0.006755	   -0.002086	   -0.006852	   -0.025052	   -0.031904	    0.080700	   -0.078352	    0.002349	   -0.014802	   -0.032256	   -0.047059	    0.002879	   -0.009111	   -0.006232	   -0.001889	   -0.003756	   -0.005645	   -0.002731	   -0.002153	   -0.004883	   -0.009716	   -0.005643	   -0.015359	   -0.050537	   -0.062041	   -0.112578	    0.076671	   -0.182301	   -0.105631
     8.025	0	0	    0	   -0.022241	   -0.009256	   -0.031497	   -0.002817	   -0.004273	   -0.007089	    0.002778	   -0.008761	   -0.005983	   -0.000719	   -0.001402	   -0.002120	   -0.013827	    0.007641	   -0.006185	    0.024601	   -0.018515	    0.006086	    0.039922	   -0.076519	   -0.036598	   -0.033379	   -0.061542	   -0.094920	    0.003084	   -0.004566	   -0.001483	   -0.010105	    0.001668	   -0.008438	    0.000331	   -0.000195	    0.000136	   -0.005272	   -0.002034	   -0.007306	   -0.000239	    0.000967	    0.000728	   -0.021770	   -0.049815	   -0.071585	    0.100883	   -0.032138	    0.068744	   -0.031951	   -0.054035	   -0.085986	   -0.003413	   -0.012383	   -0.015796	   -0.004118	   -0.003079	   -0.007197	   -0.003381	   -0.002458	   -0.005839	   -0.016050	   -0.008231	   -0.024281	   -0.068876	   -0.104604	   -0.173480	    0.099826	   -0.097362	    0.002464
     8.100	0	0	    0	   -0.034527	   -0.004186	   -0.038713	    0.000723	   -0.010611	   -0.009887	    0.005825	   -0.015191	   -0.009366	   -0.005961	    0.002510	   -0.003451	   -0.020500	    0.011831	   -0.008669	    0.045903	   -0.043156	    0.002748	    0.084616	   -0.123210	   -0.038594	   -0.039253	   -0.060944	   -0.100197	    0.001438	   -0.004744	   -0.003306	    0.015611	   -0.030254	   -0.014644	   -0.001474	    0.000034	   -0.001441	   -0.007517	   -0.001969	   -0.009486	   -0.006012	    0.005522	   -0.000490	   -0.004299	   -0.066483	   -0.070782	    0.149588	   -0.055510	    0.094078	   -0.037966	   -0.062020	   -0.099986	   -0.006904	   -0.011344	   -0.018248	    0.000251	   -0.008550	   -0.008299	   -0.003628	   -0.003321	   -0.006950	   -0.017233	   -0.010320	   -0.027553	   -0.072920	   -0.115333	   -0.188253	    0.125424	   -0.086463	    0.038961
     8.175	0	0	    0	   -0.020669	   -0.010328	   -0.030997	   -0.005784	   -0.004441	   -0.010225	   -0.006394	   -0.000409	   -0.006803	   -0.006275	    0.002493	   -0.003782	   -0.019893	    0.010400	   -0.009493	    0.023157	   -0.022387	    0.000770	    0.050565	   -0.077199	   -0.026635	   -0.035650	   -0.067594	   -0.103245	   -0.000855	   -0.001095	   -0.001950	    0.000951	   -0.009916	   -0.008966	   -0.001220	   -0.000398	   -0.001618	   -0.007243	   -0.003491	   -0.010734	   -0.009655	    0.006496	   -0.003159	   -0.027730	   -0.052590	   -0.080320	    0.106835	   -0.014796	    0.092039	   -0.039834	   -0.061404	   -0.101238	   -0.012192	    0.001634	   -0.010558	   -0.009881	    0.001964	   -0.007917	   -0.004394	   -0.002425	   -0.006819	   -0.017915	   -0.012114	   -0.030029	   -0.076167	   -0.117273	   -0.193441	    0.078087	   -0.046214	    0.031873
     8.250	0	0	    0	   -0.023258	    0.007223	   -0.016034	   -0.006456	   -0.004029	   -0.010485	   -0.005230	   -0.002731	   -0.007961	   -0.006275	    0.000616	   -0.005659	   -0.012684	    0.006797	   -0.005887	    0.025896	   -0.011517	    0.014379	    0.048807	   -0.075230	   -0.026423	   -0.004052	   -0.050404	   -0.054456	   -0.005651	   -0.000097	   -0.005748	    0.011258	   -0.021819	   -0.010561	   -0.002425	    0.000137	   -0.002289	   -0.005749	   -0.002616	   -0.008365	   -0.007847	    0.006525	   -0.001322	   -0.022950	   -0.077067	   -0.100017	    0.067090	   -0.085667	   -0.018577	   -0.026080	   -0.063028	   -0.089108	   -0.014728	    0.000392	   -0.014335	   -0.009572	    0.002878	   -0.006694	   -0.005173	   -0.000905	   -0.006079	   -0.016265	   -0.011473	   -0.027738	   -0.063126	   -0.118117	   -0.181243	    0.033259	   -0.102698	   -0.069439
     8.325	0	0	    0	   -0.009785	    0.007680	   -0.002105	   -0.000183	   -0.003904	   -0.004087	    0.002146	   -0.006659	   -0.004512	   -0.002094	    0.000757	   -0.001337	   -0.006292	    0.001190	   -0.005103	    0.008815	   -0.005360	    0.003456	    0.050674	   -0.066633	   -0.015959	    0.005777	   -0.011068	   -0.005292	   -0.002775	   -0.005338	   -0.008113	    0.002788	   -0.001118	    0.001670	   -0.000408	   -0.000837	   -0.001244	   -0.002484	   -0.002572	   -0.005056	   -0.009290	    0.000622	   -0.008667	    0.008341	   -0.051858	   -0.043517	    0.046517	   -0.096795	   -0.050278	    0.009810	   -0.027133	   -0.017323	   -0.003670	   -0.003774	   -0.007444	   -0.004109	    0.000918	   -0.003191	   -0.002911	   -0.001377	   -0.004288	   -0.008232	   -0.007695	   -0.015927	    0.010851	   -0.076111	   -0.065260	    0.095177	   -0.097933	   -0.002755
     8.400	0	0	    0	   -0.016402	    0.015092	   -0.001310	    0.005073	   -0.000416	    0.004656	    0.007261	   -0.005481	    0.001780	    0.001687	    0.000610	    0.002298	   -0.009376	    0.005670	   -0.003706	    0.009438	   -0.003378	    0.006059	    0.020908	   -0.040671	   -0.019763	    0.002994	   -0.010863	   -0.007869	    0.004479	   -0.004035	    0.000443	    0.005721	    0.004141	    0.009862	    0.002250	    0.000484	    0.002734	   -0.000799	   -0.001698	   -0.002497	    0.007379	   -0.008274	   -0.000894	    0.002916	   -0.027919	   -0.025004	   -0.000487	   -0.046772	   -0.047259	    0.016111	   -0.011340	    0.004771	    0.005158	   -0.005552	   -0.000394	   -0.003131	    0.003448	    0.000317	   -0.000163	    0.000013	   -0.000150	    0.000940	   -0.003375	   -0.002434	    0.012992	   -0.022769	   -0.009777	    0.003156	   -0.057265	   -0.054109
     8.475	0	0	    0	   -0.017908	    0.005909	   -0.011999	    0.006727	   -0.003101	    0.003626	    0.004089	   -0.003318	    0.000771	    0.001801	   -0.000167	    0.001634	   -0.010363	   -0.001027	   -0.011390	    0.019315	   -0.008091	    0.011224	   -0.019319	   -0.055434	   -0.074753	   -0.015998	   -0.010602	   -0.026600	    0.005213	   -0.003054	    0.002160	    0.021052	   -0.008210	    0.012842	    0.003367	   -0.000213	    0.003154	   -0.003679	   -0.001647	   -0.005326	    0.009631	   -0.009286	    0.000345	    0.001085	   -0.036221	   -0.035136	    0.010202	   -0.098223	   -0.088021	   -0.003677	   -0.014650	   -0.018327	    0.008114	   -0.008778	   -0.000664	   -0.000238	   -0.000156	   -0.000394	   -0.000257	   -0.000413	   -0.000669	    0.002072	   -0.002522	   -0.000449	   -0.013220	   -0.039051	   -0.052270	    0.002250	   -0.146416	   -0.144166
     8.550	0	0	    0	   -0.019079	   -0.016734	   -0.035812	    0.005989	   -0.005076	    0.000913	    0.012444	   -0.003397	    0.009047	   -0.000235	    0.003677	    0.003443	   -0.008456	    0.005064	   -0.003393	    0.038672	   -0.015719	    0.022954	    0.034877	   -0.070810	   -0.035933	   -0.026652	   -0.052204	   -0.078856	    0.007469	   -0.002232	    0.005237	   -0.000591	    0.008794	    0.008204	    0.005201	   -0.001003	    0.004198	   -0.002210	   -0.001400	   -0.003610	    0.012253	   -0.008542	    0.003710	   -0.008264	   -0.032649	   -0.040913	    0.078439	   -0.068963	    0.009476	   -0.014831	   -0.035552	   -0.050383	    0.009905	   -0.017032	   -0.007127	    0.005541	   -0.008937	   -0.003396	    0.000231	   -0.001927	   -0.001695	   -0.005919	   -0.005552	   -0.011472	   -0.053868	   -0.065927	   -0.119795	    0.076038	   -0.153203	   -0.077164
     8.625	0	0	    0	   -0.026586	   -0.003760	   -0.030346	    0.000959	   -0.002931	   -0.001971	   -0.000270	    0.003886	    0.003616	   -0.004357	    0.005300	    0.000943	   -0.012938	    0.010198	   -0.002740	    0.033883	   -0.022434	    0.011449	    0.055652	   -0.074339	   -0.018686	   -0.033003	   -0.054016	   -0.087020	    0.006240	   -0.001784	    0.004455	    0.017426	   -0.024986	   -0.007560	    0.001026	    0.001401	    0.002427	   -0.002945	   -0.001289	   -0.004235	    0.004309	    0.002637	    0.006945	   -0.019755	   -0.043786	   -0.063541	    0.092656	   -0.012308	    0.080348	   -0.027537	   -0.051938	   -0.079475	    0.000620	   -0.012619	   -0.011999	   -0.003725	   -0.000323	   -0.004048	   -0.000901	   -0.001640	   -0.002541	   -0.009501	   -0.010281	   -0.019782	   -0.065927	   -0.104208	   -0.170135	    0.085308	   -0.060472	    0.024835
     8.700	0	0	    0	   -0.029752	   -0.011089	   -0.040841	   -0.000142	   -0.004810	   -0.004951	    0.004089	   -0.003318	    0.000771	   -0.003611	    0.003936	    0.000325	   -0.014380	    0.010190	   -0.004190	    0.028861	   -0.021923	    0.006938	    0.050417	   -0.067817	   -0.017400	   -0.033451	   -0.056584	   -0.090035	    0.007154	   -0.002912	    0.004241	    0.006557	   -0.001438	    0.005119	    0.001596	    0.000166	    0.001763	   -0.004533	   -0.002463	   -0.006995	    0.000723	    0.005524	    0.006248	   -0.021708	   -0.046533	   -0.068241	    0.141150	   -0.042245	    0.098905	   -0.030558	   -0.057184	   -0.087742	   -0.002718	   -0.004475	   -0.007193	   -0.001496	   -0.001495	   -0.002991	   -0.001369	   -0.001916	   -0.003285	   -0.012605	   -0.010634	   -0.023239	   -0.067770	   -0.112991	   -0.180761	    0.110990	   -0.058765	    0.052225
     8.775	0	0	    0	   -0.016278	   -0.008811	   -0.025089	    0.003880	   -0.009804	   -0.005924	    0.010746	   -0.009828	    0.000917	   -0.001804	   -0.000868	   -0.002672	   -0.007755	    0.007377	   -0.000378	    0.044134	   -0.035205	    0.008930	    0.083901	   -0.105603	   -0.021702	   -0.006658	   -0.064137	   -0.070795	    0.006108	   -0.001564	    0.004544	    0.023244	   -0.031181	   -0.007937	   -0.000073	    0.001209	    0.001136	   -0.003075	   -0.001625	   -0.004700	    0.000742	    0.006069	    0.006812	   -0.033000	   -0.046073	   -0.079072	    0.024834	    0.011194	    0.036028	   -0.023998	   -0.060195	   -0.084193	   -0.002651	   -0.005564	   -0.008214	    0.001161	   -0.005537	   -0.004376	   -0.000732	   -0.001908	   -0.002640	   -0.010972	   -0.012265	   -0.023237	   -0.063160	   -0.116748	   -0.179909	    0.057597	   -0.041611	    0.015986
     8.850	0	0	    0	   -0.016304	    0.010371	   -0.005933	   -0.000297	   -0.002884	   -0.003180	   -0.001181	    0.002358	    0.001177	   -0.002133	   -0.000236	   -0.002369	   -0.005898	   -0.000027	   -0.005925	    0.012834	    0.005832	    0.018667	    0.057872	   -0.064449	   -0.006577	    0.008347	   -0.019327	   -0.010980	    0.000920	   -0.000965	   -0.000045	   -0.000264	   -0.001780	   -0.002044	    0.000403	    0.000283	    0.000686	   -0.002208	   -0.000102	   -0.002310	   -0.002551	    0.009933	    0.007382	   -0.002575	   -0.048575	   -0.051150	    0.024719	   -0.062018	   -0.037299	    0.005396	   -0.048711	   -0.043315	    0.002879	   -0.009111	   -0.006232	    0.001950	   -0.004522	   -0.002572	   -0.000957	   -0.000855	   -0.001812	   -0.004828	   -0.007779	   -0.012608	   -0.015670	   -0.103562	   -0.119231	    0.066864	   -0.100630	   -0.033766
     8.925	0	0	    0	   -0.012130	    0.003198	   -0.008932	   -0.000410	   -0.001632	   -0.002042	    0.001327	    0.000557	    0.001884	   -0.000380	   -0.002874	   -0.003254	   -0.005927	   -0.003007	   -0.008934	    0.009402	   -0.010855	   -0.001453	    0.023090	   -0.053673	   -0.030582	    0.007719	   -0.011492	   -0.003774	    0.002526	   -0.004972	   -0.002446	   -0.006920	    0.012035	    0.005115	    0.001313	   -0.001311	    0.000002	   -0.002106	   -0.000849	   -0.002955	    0.004442	   -0.005804	   -0.001362	   -0.003105	   -0.012708	   -0.015812	    0.014926	   -0.055555	   -0.040629	    0.017289	   -0.014441	    0.002848	    0.006909	   -0.006306	    0.000603	    0.003149	   -0.005563	   -0.002414	   -0.001495	   -0.000900	   -0.002395	   -0.000529	   -0.004899	   -0.005427	    0.012235	   -0.026074	   -0.013839	    0.043876	   -0.047977	   -0.004101
     9.000	0	0	    0	   -0.003659	   -0.009356	   -0.013016	   -0.000272	   -0.001625	   -0.001897	   -0.000427	    0.001851	    0.001423	   -0.002393	   -0.000331	   -0.002724	   -0.005463	   -0.006012	   -0.011475	    0.006473	   -0.001573	    0.004901	   -0.010221	   -0.059082	   -0.069303	   -0.005531	   -0.015902	   -0.021434	   -0.000927	   -0.003085	   -0.004012	   -0.003860	    0.006243	    0.002383	   -0.001225	    0.000192	   -0.001034	   -0.004712	   -0.001549	   -0.006261	    0.000592	   -0.004040	   -0.003448	   -0.007520	   -0.028577	   -0.036098	   -0.020369	   -0.065908	   -0.086277	   -0.003317	   -0.004285	   -0.007603	   -0.000817	   -0.001507	   -0.002324	   -0.009377	    0.003863	   -0.005514	   -0.003829	   -0.000204	   -0.004033	   -0.005547	   -0.001158	   -0.006705	   -0.023295	   -0.023767	   -0.047062	   -0.042613	   -0.105478	   -0.148091
     9.075	0	0	    0	   -0.000467	   -0.017955	   -0.018422	   -0.000572	   -0.004719	   -0.005291	   -0.001397	   -0.000929	   -0.002326	   -0.000066	   -0.002437	   -0.002503	    0.000591	   -0.006887	   -0.006296	    0.027962	   -0.014080	    0.013883	    0.001050	   -0.082495	   -0.081445	   -0.030412	   -0.045583	   -0.075995	   -0.000783	   -0.002905	   -0.003688	    0.000287	    0.003185	    0.003472	   -0.000146	   -0.001559	   -0.001705	   -0.005492	   -0.004246	   -0.009738	   -0.004913	    0.000931	   -0.003982	   -0.028974	   -0.023575	   -0.052549	    0.034083	   -0.057308	   -0.023225	   -0.032349	   -0.021504	   -0.053853	   -0.019969	    0.018256	   -0.001713	   -0.001883	   -0.005054	   -0.006937	   -0.005471	   -0.001603	   -0.007074	   -0.014753	   -0.003849	   -0.018602	   -0.064303	   -0.056300	   -0.120603	    0.010056	   -0.156679	   -0.146623
     9.150	0	0	    0	   -0.024402	   -0.003873	   -0.028275	   -0.003967	   -0.006480	   -0.010447	   -0.005423	   -0.000304	   -0.005727	   -0.007983	    0.004440	   -0.003542	   -0.012801	    0.008773	   -0.004028	    0.032114	   -0.018296	    0.013818	    0.050422	   -0.087473	   -0.037051	   -0.041681	   -0.054430	   -0.096111	   -0.001552	   -0.005225	   -0.006778	    0.003474	   -0.002093	    0.001380	   -0.001996	   -0.000334	   -0.002330	   -0.008102	   -0.002313	   -0.010415	   -0.000774	   -0.001989	   -0.002763	   -0.030729	   -0.057052	   -0.087780	    0.066906	   -0.032808	    0.034098	   -0.042338	   -0.047085	   -0.089423	   -0.000644	   -0.012538	   -0.013183	   -0.003678	   -0.002453	   -0.006131	   -0.006288	   -0.001595	   -0.007883	   -0.016553	   -0.010651	   -0.027204	   -0.082901	   -0.095579	   -0.178480	    0.060232	   -0.077460	   -0.017229
     9.225	0	0	    0	   -0.026924	   -0.009460	   -0.036384	   -0.002402	   -0.008863	   -0.011265	   -0.004023	   -0.005550	   -0.009572	   -0.008089	    0.002289	   -0.005800	   -0.013598	    0.003720	   -0.009879	    0.034532	   -0.032788	    0.001745	    0.074386	   -0.097903	   -0.023518	   -0.045811	   -0.060083	   -0.105895	   -0.003079	   -0.003048	   -0.006126	    0.035776	   -0.046995	   -0.011220	   -0.003659	   -0.001535	   -0.005194	   -0.010296	   -0.002393	   -0.012689	   -0.008703	    0.005612	   -0.003091	   -0.032643	   -0.050994	   -0.083637	    0.111804	   -0.021898	    0.089907	   -0.046459	   -0.059926	   -0.106385	   -0.011393	   -0.004292	   -0.015685	   -0.005150	   -0.003438	   -0.008588	   -0.007253	   -0.002233	   -0.009486	   -0.019498	   -0.012372	   -0.031870	   -0.085895	   -0.114097	   -0.199992	    0.062749	   -0.044571	    0.018178
     9.300	0	0	    0	   -0.027606	   -0.011209	   -0.038815	   -0.010431	   -0.004383	   -0.014814	   -0.011610	   -0.000001	   -0.011611	   -0.008687	    0.002214	   -0.006472	   -0.018549	    0.004534	   -0.014015	    0.021840	   -0.032828	   -0.010988	    0.012690	   -0.057095	   -0.044405	   -0.042654	   -0.062417	   -0.105071	   -0.005447	   -0.001792	   -0.007239	    0.000662	   -0.011631	   -0.010970	   -0.005343	   -0.000984	   -0.006327	   -0.010792	   -0.003915	   -0.014708	   -0.008867	    0.001846	   -0.007021	   -0.042588	   -0.058753	   -0.101340	    0.109575	   -0.027631	    0.081945	   -0.050911	   -0.063464	   -0.114375	   -0.006532	   -0.007526	   -0.014058	   -0.004436	   -0.004770	   -0.009206	   -0.007566	   -0.002460	   -0.010026	   -0.021887	   -0.013232	   -0.035119	   -0.090330	   -0.117510	   -0.207841	    0.071825	   -0.067511	    0.004314
     9.375	0	0	    0	   -0.017613	   -0.007105	   -0.024718	   -0.006139	   -0.004013	   -0.010152	   -0.002635	   -0.004644	   -0.007280	   -0.003460	    0.001229	   -0.002231	   -0.010476	    0.009642	   -0.000833	    0.021908	   -0.010388	    0.011521	    0.021352	   -0.051733	   -0.030381	   -0.023012	   -0.059259	   -0.082271	   -0.000950	   -0.003719	   -0.004670	   -0.013075	    0.008713	   -0.004363	   -0.000919	   -0.001906	   -0.002825	   -0.006139	   -0.003029	   -0.009168	   -0.004439	    0.001270	   -0.003169	   -0.053347	   -0.037811	   -0.091157	    0.029500	   -0.020507	    0.008994	   -0.034717	   -0.064774	   -0.099491	    0.014216	   -0.024470	   -0.010254	   -0.003419	   -0.003112	   -0.006531	   -0.003694	   -0.001475	   -0.005168	   -0.015436	   -0.015396	   -0.030832	   -0.070693	   -0.117657	   -0.188349	    0.030099	   -0.048195	   -0.018096
     9.450	0	0	    0	    0.006459	   -0.023075	   -0.016616	   -0.001478	   -0.002721	   -0.004200	   -0.002000	    0.002481	    0.000481	    0.003151	   -0.004195	   -0.001044	   -0.001389	   -0.009331	   -0.010720	    0.011832	    0.000285	    0.012117	    0.033026	   -0.057656	   -0.024630	    0.016315	   -0.039963	   -0.023649	   -0.000207	   -0.001940	   -0.002147	    0.008823	   -0.011926	   -0.003102	    0.001488	   -0.001886	   -0.000398	   -0.003109	   -0.002774	   -0.005883	   -0.002022	    0.004054	    0.002031	   -0.005996	   -0.047968	   -0.053963	    0.013699	   -0.051361	   -0.037662	   -0.009059	   -0.053253	   -0.062312	    0.005511	   -0.014847	   -0.009336	    0.002645	   -0.009340	   -0.006695	   -0.002020	   -0.000187	   -0.002207	   -0.005591	   -0.010867	   -0.016458	   -0.027112	   -0.101799	   -0.128911	    0.076893	   -0.124991	   -0.048098
     9.525	0	0	    0	   -0.011912	    0.006644	   -0.005268	    0.004970	   -0.002035	    0.002934	    0.007847	   -0.003539	    0.004308	   -0.000932	    0.001600	    0.000669	   -0.009713	    0.001165	   -0.008548	    0.011642	   -0.014532	   -0.002890	    0.048634	   -0.054910	   -0.006276	    0.002321	   -0.012120	   -0.009800	    0.004648	   -0.003297	    0.001351	    0.018914	   -0.006633	    0.012281	    0.001921	   -0.000626	    0.001294	   -0.002811	   -0.001348	   -0.004159	    0.003082	   -0.005469	   -0.002387	    0.004069	   -0.022368	   -0.018299	    0.006688	   -0.034111	   -0.027423	    0.011743	   -0.011928	   -0.000185	    0.003282	    0.001840	    0.005122	    0.002247	   -0.001182	    0.001065	   -0.000791	   -0.000098	   -0.000888	    0.001279	   -0.003855	   -0.002576	    0.014414	   -0.024003	   -0.009588	    0.037126	   -0.028986	    0.008140
     9.600	0	0	    0	   -0.015642	    0.005794	   -0.009848	    0.002500	   -0.001358	    0.001142	    0.006140	   -0.003647	    0.002493	    0.001477	    0.000241	    0.001719	   -0.005697	   -0.003241	   -0.008938	    0.009799	   -0.000033	    0.009766	   -0.027930	   -0.030340	   -0.058271	   -0.013657	   -0.011601	   -0.025258	    0.004495	   -0.003637	    0.000858	    0.008849	    0.004821	    0.013670	    0.001139	   -0.000519	    0.000620	   -0.005513	   -0.000839	   -0.006353	    0.006408	   -0.008933	   -0.002525	   -0.019450	   -0.015564	   -0.035014	   -0.033801	   -0.052539	   -0.086340	   -0.000227	   -0.007065	   -0.007293	    0.000628	    0.002192	    0.002820	    0.000469	   -0.000188	    0.000281	   -0.002653	    0.001024	   -0.001629	   -0.001729	   -0.001918	   -0.003647	   -0.017387	   -0.015378	   -0.032765	   -0.038687	   -0.087833	   -0.126519
     9.675	0	0	    0	   -0.029096	   -0.001458	   -0.030554	   -0.000361	   -0.002319	   -0.002680	   -0.003630	   -0.000327	   -0.003957	   -0.007168	    0.005707	   -0.001461	   -0.018385	    0.007330	   -0.011055	    0.033428	   -0.021825	    0.011603	   -0.012340	   -0.086577	   -0.098917	   -0.038271	   -0.036411	   -0.074683	    0.002330	   -0.003111	   -0.000781	   -0.000395	    0.001349	    0.000955	    0.001355	   -0.001760	   -0.000405	   -0.006432	   -0.002343	   -0.008775	    0.003875	   -0.007315	   -0.003440	   -0.023554	   -0.023005	   -0.046558	    0.027519	   -0.067682	   -0.040162	   -0.022242	   -0.028311	   -0.050553	    0.005846	   -0.013365	   -0.007519	    0.000335	   -0.006221	   -0.005886	   -0.003592	   -0.000500	   -0.004091	   -0.009687	   -0.003902	   -0.013589	   -0.052918	   -0.044560	   -0.097478	    0.003483	   -0.154667	   -0.151184
     9.750	0	0	    0	   -0.022731	   -0.007753	   -0.030484	   -0.002729	   -0.002220	   -0.004949	   -0.003468	    0.001686	   -0.001782	   -0.004286	    0.004789	    0.000504	   -0.008251	    0.004270	   -0.003981	    0.022897	   -0.006820	    0.016078	    0.003192	   -0.053287	   -0.050095	   -0.035862	   -0.053179	   -0.089041	    0.003146	   -0.003300	   -0.000154	   -0.000176	    0.004582	    0.004406	    0.001404	   -0.000987	    0.000417	   -0.005273	   -0.003318	   -0.008592	    0.001154	   -0.000252	    0.000902	   -0.032290	   -0.041702	   -0.073992	    0.049309	   -0.049771	   -0.000463	   -0.031109	   -0.048445	   -0.079554	   -0.007437	    0.001438	   -0.005999	   -0.002397	    0.002083	   -0.000314	   -0.004554	   -0.000026	   -0.004580	   -0.014143	   -0.008127	   -0.022270	   -0.068557	   -0.090648	   -0.159205	    0.048358	   -0.075373	   -0.027015
     9.825	0	0	    0	   -0.023486	   -0.014678	   -0.038165	   -0.003739	   -0.004212	   -0.007951	   -0.007874	   -0.000309	   -0.008183	   -0.004974	    0.001678	   -0.003296	   -0.013654	    0.010477	   -0.003177	    0.024894	   -0.020774	    0.004120	    0.011973	   -0.047458	   -0.035485	   -0.039695	   -0.059029	   -0.098723	    0.001262	   -0.002734	   -0.001472	   -0.010783	    0.010404	   -0.000379	    0.000322	   -0.001716	   -0.001394	   -0.006514	   -0.002245	   -0.008758	   -0.002022	    0.004054	    0.002031	   -0.033657	   -0.043112	   -0.076769	    0.089915	   -0.012328	    0.077588	   -0.040393	   -0.053434	   -0.093828	    0.009481	   -0.022872	   -0.013391	    0.003026	   -0.006285	   -0.003259	   -0.004226	   -0.001724	   -0.005950	   -0.015686	   -0.011342	   -0.027028	   -0.079021	   -0.102862	   -0.181882	    0.080709	   -0.061865	    0.018843
     9.900	0	0	    0	   -0.020650	   -0.015654	   -0.036304	   -0.003033	   -0.003610	   -0.006643	   -0.000525	   -0.005978	   -0.006503	   -0.006404	    0.002652	   -0.003752	   -0.013948	    0.009621	   -0.004327	    0.019134	   -0.018295	    0.000839	    0.038758	   -0.074193	   -0.035435	   -0.043107	   -0.059132	   -0.102239	    0.003836	   -0.003111	    0.000726	   -0.009313	   -0.009917	   -0.019230	   -0.001708	   -0.000964	   -0.002671	   -0.008195	   -0.001894	   -0.010089	   -0.002365	    0.003135	    0.000770	   -0.027733	   -0.049911	   -0.077645	    0.125929	   -0.032716	    0.093213	   -0.042161	   -0.060432	   -0.102593	    0.002657	   -0.018042	   -0.015384	    0.002489	   -0.009240	   -0.006751	   -0.004865	   -0.001838	   -0.006704	   -0.017323	   -0.010854	   -0.028177	   -0.083701	   -0.108065	   -0.191766	    0.084777	   -0.028392	    0.056385
