 [File Information]      		 [Data Line]	36
Measured Date	2024/05/21 102105
ID		Version	11.0
Name	tristan_5	[HeaderType]	11.0/11.0
Comment	
[Measurement Info.]
Holder Location	       0
Block Design	Off     
Pre.Rest Time	       0
Task Time	       0
Pos.Rest Time	       0
Loop	       0
Averaging	       1
Total Points	     838
[.INF File]
Filename	Cognitive1.INF
[Condition-1]
HV Switching	OFF
 R1 ,R2 ,R3 ,R4 ,R5 ,R6 ,R7 ,R8 
 120.00, 70.00,120.00,100.00, 90.00, 70.00,120.00,120.00
 Gain(X1,X4,X16,X64)
 R1 ,R2 ,R3 ,R4 ,R5 ,R6 ,R7 ,R8 
 1,1,1,1,1,1,1,1
[Analysis Condition]
Smoothed Type	None            
Smoothed Points	       0
Smoothed Loop	       0
Baseline Method	None            
Baseline location	
[Text Info.]
Output Mode	Continious      	Task No.		Data Type	Hb      
Time Range	    0.00	   62.78	Averaing	1
(1,3)(5,3)(5,7)(2,7)(2,4)(6,4)(6,8)(1,1)(3,3)(5,5)(7,7)(2,2)(4,4)(6,6)(8,8)(3,1)(3,5)(7,5)(7,2)(4,2)(4,6)(8,6)
         	     	     	     	    ch- 1	    ch- 1	    ch- 1	    ch- 2	    ch- 2	    ch- 2	    ch- 3	    ch- 3	    ch- 3	    ch- 4	    ch- 4	    ch- 4	    ch- 5	    ch- 5	    ch- 5	    ch- 6	    ch- 6	    ch- 6	    ch- 7	    ch- 7	    ch- 7	    ch- 8	    ch- 8	    ch- 8	    ch- 9	    ch- 9	    ch- 9	    ch-10	    ch-10	    ch-10	    ch-11	    ch-11	    ch-11	    ch-12	    ch-12	    ch-12	    ch-13	    ch-13	    ch-13	    ch-14	    ch-14	    ch-14	    ch-15	    ch-15	    ch-15	    ch-16	    ch-16	    ch-16	    ch-17	    ch-17	    ch-17	    ch-18	    ch-18	    ch-18	    ch-19	    ch-19	    ch-19	    ch-20	    ch-20	    ch-20	    ch-21	    ch-21	    ch-21	    ch-22	    ch-22	    ch-22
Time(sec)	Task	Mark	Count	    oxyHb   	  deoxyHb	  totalHb	    oxyHb   	  deoxyHb	  totalHb	    oxyHb   	  deoxyHb	  totalHb	    oxyHb   	  deoxyHb	  totalHb	    oxyHb   	  deoxyHb	  totalHb	    oxyHb   	  deoxyHb	  totalHb	    oxyHb   	  deoxyHb	  totalHb	    oxyHb   	  deoxyHb	  totalHb	    oxyHb   	  deoxyHb	  totalHb	    oxyHb   	  deoxyHb	  totalHb	    oxyHb   	  deoxyHb	  totalHb	    oxyHb   	  deoxyHb	  totalHb	    oxyHb   	  deoxyHb	  totalHb	    oxyHb   	  deoxyHb	  totalHb	    oxyHb   	  deoxyHb	  totalHb	    oxyHb   	  deoxyHb	  totalHb	    oxyHb   	  deoxyHb	  totalHb	    oxyHb   	  deoxyHb	  totalHb	    oxyHb   	  deoxyHb	  totalHb	    oxyHb   	  deoxyHb	  totalHb	    oxyHb   	  deoxyHb	  totalHb	    oxyHb   	  deoxyHb	  totalHb
     0.000	0	0Z	    0	    0.000000	    0.000000	    0.000000	    0.000000	    0.000000	    0.000000	    0.000000	    0.000000	    0.000000	    0.000000	    0.000000	    0.000000	    0.000000	    0.000000	    0.000000	    0.000000	    0.000000	    0.000000	    0.000000	    0.000000	    0.000000	    0.000000	    0.000000	    0.000000	    0.000000	    0.000000	    0.000000	    0.000000	    0.000000	    0.000000	    0.000000	    0.000000	    0.000000	    0.000000	    0.000000	    0.000000	    0.000000	    0.000000	    0.000000	    0.000000	    0.000000	    0.000000	    0.000000	    0.000000	    0.000000	    0.000000	    0.000000	    0.000000	    0.000000	    0.000000	    0.000000	    0.000000	    0.000000	    0.000000	    0.000000	    0.000000	    0.000000	    0.000000	    0.000000	    0.000000	    0.000000	    0.000000	    0.000000	    0.000000	    0.000000	    0.000000
     0.075	0	0	    0	   -0.002789	   -0.004786	   -0.007575	    0.003507	   -0.003531	   -0.000023	    0.003803	   -0.000513	    0.003290	    0.002448	    0.003868	    0.006316	   -0.013742	   -0.002483	   -0.016225	   -0.008732	   -0.003642	   -0.012374	    0.034514	    0.011806	    0.046319	   -0.006961	    0.000962	   -0.005999	   -0.024672	   -0.024389	   -0.049061	   -0.095559	   -0.051871	   -0.147430	   -0.019027	   -0.025410	   -0.044437	   -0.044613	    0.002955	   -0.041659	   -0.124125	   -0.027618	   -0.151743	   -0.023794	   -0.020234	   -0.044028	    0.002261	    0.024163	    0.026424	   -0.001295	   -0.004297	   -0.005593	    0.014427	    0.009167	    0.023594	    0.086094	    0.049392	    0.135486	    0.111076	    0.043583	    0.154659	    0.043822	    0.013760	    0.057582	   -0.055821	    0.007028	   -0.048793	    0.018015	   -0.010109	    0.007906
     0.150	0	0	    0	    0.012307	    0.000651	    0.012958	    0.001211	   -0.000358	    0.000854	    0.004556	    0.006120	    0.010675	   -0.001576	    0.002529	    0.000953	   -0.027673	    0.020871	   -0.006801	   -0.017471	    0.018185	    0.000714	    0.051936	    0.050861	    0.102797	   -0.018437	    0.003799	   -0.014638	   -0.015758	   -0.036621	   -0.052379	   -0.106829	   -0.115039	   -0.221867	   -0.012390	   -0.031398	   -0.043788	   -0.099030	   -0.064308	   -0.163337	   -0.160932	   -0.133708	   -0.294640	   -0.022300	   -0.034919	   -0.057219	    0.006219	    0.031839	    0.038059	    0.013391	    0.017001	    0.030392	    0.011353	    0.017100	    0.028453	    0.084582	    0.097700	    0.182282	    0.115506	    0.118527	    0.234033	    0.046262	    0.080904	    0.127166	   -0.067309	   -0.052959	   -0.120268	    0.024514	    0.010341	    0.034855
     0.225	0	0	    0	    0.006489	    0.004960	    0.011449	   -0.006455	   -0.001830	   -0.008285	    0.001032	    0.005645	    0.006678	   -0.001086	    0.003779	    0.002693	   -0.031108	    0.013669	   -0.017439	   -0.023581	    0.016939	   -0.006642	    0.042045	    0.056888	    0.098933	   -0.022365	    0.002609	   -0.019756	   -0.024752	   -0.032507	   -0.057259	   -0.095649	   -0.104442	   -0.200091	   -0.012421	   -0.027728	   -0.040150	   -0.089975	   -0.086162	   -0.176138	   -0.159978	   -0.144391	   -0.304368	   -0.028419	   -0.032126	   -0.060545	    0.002207	    0.035103	    0.037309	    0.006240	    0.023703	    0.029943	    0.011172	    0.020593	    0.031765	    0.072459	    0.094316	    0.166776	    0.093558	    0.111174	    0.204732	    0.037917	    0.092443	    0.130361	   -0.071310	   -0.057750	   -0.129059	    0.013594	    0.009877	    0.023471
     0.300	0	0	    0	    0.000043	    0.002388	    0.002431	   -0.020652	   -0.001520	   -0.022173	   -0.009002	    0.006571	   -0.002431	    0.001844	    0.004097	    0.005941	   -0.030660	    0.008528	   -0.022132	   -0.023635	    0.006105	   -0.017530	    0.020471	    0.050579	    0.071049	   -0.023574	    0.002592	   -0.020982	   -0.029523	   -0.032957	   -0.062480	   -0.025186	   -0.101506	   -0.126692	   -0.004383	   -0.023631	   -0.028014	   -0.062681	   -0.080213	   -0.142893	   -0.125198	   -0.148655	   -0.273853	   -0.014858	   -0.036411	   -0.051269	    0.004898	    0.034779	    0.039677	    0.010218	    0.021072	    0.031290	    0.001448	    0.021334	    0.022781	   -0.012823	    0.080029	    0.067206	   -0.024920	    0.079413	    0.054493	    0.015555	    0.091771	    0.107326	   -0.055581	   -0.062773	   -0.118354	    0.020505	    0.005262	    0.025766
     0.375	0	0	    0	   -0.003034	   -0.001720	   -0.004753	    0.002644	   -0.003079	   -0.000435	    0.000074	   -0.005664	   -0.005590	   -0.005461	    0.004490	   -0.000971	   -0.012137	   -0.012926	   -0.025062	   -0.019340	   -0.000505	   -0.019844	    0.015743	    0.028261	    0.044004	   -0.010824	    0.009018	   -0.001805	    0.006084	   -0.005707	    0.000377	    0.015083	   -0.008154	    0.006928	    0.035119	    0.016364	    0.051483	   -0.016444	   -0.007972	   -0.024416	    0.005398	   -0.023513	   -0.018114	    0.025926	    0.013515	    0.039441	    0.031260	    0.033366	    0.064626	    0.050681	    0.027265	    0.077946	   -0.019114	    0.007703	   -0.011411	   -0.042790	   -0.003863	   -0.046653	   -0.016823	   -0.012929	   -0.029753	   -0.038816	    0.004494	   -0.034321	    0.002825	   -0.003864	   -0.001038	    0.069216	    0.023352	    0.092569
     0.450	0	0	    0	    0.004597	    0.007839	    0.012436	    0.001222	    0.007675	    0.008897	    0.006371	    0.000479	    0.006850	   -0.011673	   -0.004290	   -0.015963	    0.014820	    0.010209	    0.025028	   -0.008325	    0.003311	   -0.005014	    0.034983	    0.015670	    0.050653	    0.000055	    0.027087	    0.027143	    0.008622	    0.018944	    0.027565	   -0.005066	    0.000033	   -0.005033	    0.022547	    0.023755	    0.046303	   -0.037415	   -0.026966	   -0.064381	    0.000524	    0.024387	    0.024910	    0.025324	    0.033766	    0.059090	    0.045092	    0.076111	    0.121203	    0.075975	    0.056892	    0.132868	   -0.023443	   -0.019307	   -0.042750	   -0.019510	   -0.016174	   -0.035684	    0.003294	   -0.016869	   -0.013575	   -0.018838	   -0.027803	   -0.046642	    0.005253	    0.004213	    0.009466	    0.080380	    0.053998	    0.134378
     0.525	0	0	    0	    0.002174	    0.010417	    0.012591	    0.000926	    0.001417	    0.002343	    0.014158	    0.005390	    0.019549	    0.004964	    0.006614	    0.011578	    0.000837	    0.008886	    0.009723	   -0.004764	    0.001660	   -0.003104	    0.061460	    0.030821	    0.092281	    0.011133	    0.058365	    0.069498	   -0.019686	   -0.005156	   -0.024842	   -0.106457	   -0.058075	   -0.164532	   -0.007387	   -0.013663	   -0.021050	   -0.088039	   -0.029391	   -0.117431	   -0.122616	   -0.018562	   -0.141178	   -0.001620	    0.007158	    0.005538	    0.048410	    0.113131	    0.161541	    0.065971	    0.069336	    0.135307	   -0.005127	   -0.012014	   -0.017141	    0.078768	    0.039789	    0.118557	    0.117853	    0.049694	    0.167547	    0.025346	    0.007197	    0.032543	   -0.044785	    0.005652	   -0.039133	    0.089341	    0.059017	    0.148358
     0.600	0	0	    0	    0.009717	    0.014055	    0.023773	    0.001212	    0.000958	    0.002170	    0.011750	    0.012403	    0.024153	    0.000649	    0.011850	    0.012500	   -0.019079	    0.016448	   -0.002631	   -0.001810	    0.017121	    0.015312	    0.054499	    0.052612	    0.107111	    0.003632	    0.070695	    0.074327	   -0.012246	   -0.017886	   -0.030132	   -0.045524	   -0.113354	   -0.158878	    0.008510	   -0.017351	   -0.008841	   -0.101014	   -0.102854	   -0.203868	   -0.115873	   -0.136628	   -0.252500	   -0.000745	   -0.008043	   -0.008788	    0.031017	    0.117034	    0.148051	    0.052329	    0.064614	    0.116944	   -0.003179	    0.001519	   -0.001660	    0.009157	    0.071347	    0.080504	    0.021517	    0.089418	    0.110935	    0.031415	    0.061339	    0.092754	   -0.049134	   -0.056956	   -0.106090	    0.068319	    0.058017	    0.126336
     0.675	0	0	    0	    0.002444	    0.011599	    0.014042	    0.001320	    0.002395	    0.003714	    0.003330	    0.000119	    0.003448	   -0.000864	    0.011486	    0.010623	   -0.002050	    0.003751	    0.001701	   -0.017477	    0.007045	   -0.010432	    0.030493	    0.037530	    0.068023	   -0.006473	    0.070844	    0.064371	   -0.000629	   -0.004703	   -0.005332	    0.014387	   -0.038280	   -0.023893	    0.024185	   -0.003926	    0.020259	   -0.022591	   -0.070028	   -0.092619	   -0.010406	   -0.085134	   -0.095540	    0.028667	    0.001306	    0.029973	    0.031587	    0.102365	    0.133952	    0.055162	    0.049034	    0.104196	   -0.015253	   -0.002863	   -0.018116	   -0.033646	    0.012059	   -0.021587	   -0.015582	    0.005940	   -0.009642	   -0.014138	    0.033445	    0.019307	    0.010949	   -0.041571	   -0.030622	    0.070702	    0.041712	    0.112415
     0.750	0	0	    0	    0.005152	    0.011357	    0.016509	   -0.001443	    0.007592	    0.006150	    0.004003	    0.001803	    0.005806	   -0.008250	   -0.000938	   -0.009187	    0.013145	    0.012311	    0.025456	   -0.016047	    0.011801	   -0.004246	    0.034809	    0.024271	    0.059080	   -0.003002	    0.063386	    0.060384	   -0.000290	    0.018099	    0.017809	   -0.013628	   -0.003158	   -0.016786	    0.007296	    0.013461	    0.020757	   -0.021463	   -0.025630	   -0.047093	   -0.009998	    0.004241	   -0.005757	    0.012896	    0.040966	    0.053861	    0.038923	    0.110687	    0.149610	    0.065464	    0.054451	    0.119914	   -0.022455	   -0.017032	   -0.039488	   -0.011168	   -0.010749	   -0.021917	    0.012229	   -0.017367	   -0.005138	   -0.003953	   -0.016906	   -0.020859	    0.006644	   -0.004944	    0.001700	    0.073409	    0.055303	    0.128712
     0.825	0	0	    0	   -0.000617	    0.009826	    0.009208	   -0.004642	    0.000587	   -0.004055	    0.012452	    0.006412	    0.018864	    0.005002	    0.009854	    0.014856	    0.004365	    0.009067	    0.013431	   -0.013841	    0.010342	   -0.003499	    0.055588	    0.039605	    0.095194	   -0.002682	    0.069782	    0.067100	   -0.025439	   -0.006687	   -0.032125	   -0.115067	   -0.067647	   -0.182713	   -0.014769	   -0.019107	   -0.033876	   -0.085004	   -0.031671	   -0.116675	   -0.128486	   -0.045905	   -0.174392	   -0.005350	    0.004732	   -0.000617	    0.042988	    0.121313	    0.164301	    0.056478	    0.057608	    0.114086	   -0.006241	   -0.011484	   -0.017725	    0.083371	    0.046046	    0.129417	    0.126032	    0.057638	    0.183670	    0.030360	    0.012292	    0.042652	   -0.048454	   -0.013760	   -0.062213	    0.084809	    0.050532	    0.135340
     0.900	0	0	    0	    0.011850	    0.012168	    0.024019	   -0.005238	    0.003232	   -0.002006	    0.010609	    0.010803	    0.021413	    0.002908	    0.013043	    0.015951	   -0.032326	    0.019843	   -0.012484	   -0.016581	    0.027756	    0.011175	    0.053617	    0.057883	    0.111500	   -0.007541	    0.063618	    0.056077	   -0.016908	   -0.019815	   -0.036723	   -0.114486	   -0.125678	   -0.240164	   -0.000706	   -0.024517	   -0.025223	   -0.115533	   -0.104266	   -0.219798	   -0.147437	   -0.133886	   -0.281323	   -0.009551	   -0.004611	   -0.014162	    0.035019	    0.120307	    0.155326	    0.048668	    0.058106	    0.106774	   -0.008492	    0.001030	   -0.007462	    0.060575	    0.090068	    0.150643	    0.081582	    0.112467	    0.194049	    0.032197	    0.063772	    0.095968	   -0.054675	   -0.053934	   -0.108609	    0.070153	    0.051331	    0.121484
     0.975	0	0	    0	   -0.001773	    0.011349	    0.009576	   -0.010787	   -0.000303	   -0.011089	    0.007919	    0.012736	    0.020655	    0.007135	    0.013682	    0.020817	   -0.014571	    0.019448	    0.004876	   -0.011603	    0.016357	    0.004754	    0.040646	    0.043019	    0.083665	   -0.016116	    0.064919	    0.048803	   -0.031457	   -0.020374	   -0.051831	   -0.086565	   -0.084869	   -0.171435	   -0.011070	   -0.013610	   -0.024680	   -0.063861	   -0.088868	   -0.152729	   -0.117578	   -0.125169	   -0.242747	   -0.008820	   -0.006386	   -0.015206	    0.027249	    0.112655	    0.139904	    0.038341	    0.051586	    0.089927	   -0.005267	    0.005078	   -0.000188	    0.062591	    0.053530	    0.116121	    0.090688	    0.048121	    0.138809	    0.017718	    0.063916	    0.081635	   -0.044003	   -0.048235	   -0.092238	    0.055438	    0.041793	    0.097231
     1.050	0	0	    0	    0.037452	   -0.004102	    0.033350	   -0.038070	    0.001639	   -0.036430	   -0.059789	    0.032300	   -0.027489	   -0.021159	    0.028212	    0.007053	   -0.119910	    0.050011	   -0.069898	   -0.130353	    0.079324	   -0.051029	    0.091777	    0.056806	    0.148584	   -0.026884	    0.055651	    0.028767	    0.000014	   -0.037727	   -0.037714	   -0.284657	   -0.133915	   -0.418571	   -0.115293	   -0.066318	   -0.181611	   -0.207522	   -0.046951	   -0.254472	   -0.227330	   -0.113912	   -0.341242	   -0.028952	   -0.008625	   -0.037577	    0.028485	    0.102260	    0.130745	    0.043183	    0.043605	    0.086788	   -0.050452	    0.009690	   -0.040762	    0.120932	    0.150899	    0.271830	    0.289607	    0.178284	    0.467891	    0.062148	    0.053227	    0.115376	   -0.064799	   -0.048920	   -0.113719	    0.060076	    0.034433	    0.094509
     1.125	0	0	    0	    0.069679	    0.070560	    0.140239	   -0.040615	   -0.001009	   -0.041623	   -0.066684	    0.047562	   -0.019122	   -0.023361	    0.075624	    0.052263	   -0.315734	   -0.103946	   -0.419680	   -0.260797	   -0.004145	   -0.264942	    0.110071	    0.112967	    0.223037	   -0.024648	    0.036997	    0.012349	    0.011346	   -0.016383	   -0.005037	   -0.233448	   -0.185644	   -0.419092	   -0.079010	   -0.083177	   -0.162187	   -0.220839	   -0.153674	   -0.374513	   -0.307791	   -0.193982	   -0.501772	   -0.020070	   -0.007846	   -0.027916	    0.038151	    0.103905	    0.142056	    0.052593	    0.060952	    0.113545	   -0.009597	   -0.019863	   -0.029460	    0.161320	    0.155872	    0.317193	    0.298434	    0.275095	    0.573529	    0.074318	    0.101365	    0.175683	   -0.065823	   -0.056504	   -0.122327	    0.085968	    0.026842	    0.112810
     1.200	0	0	    0	    0.067132	    0.078509	    0.145641	   -0.028189	    0.000687	   -0.027502	   -0.031798	    0.042925	    0.011127	   -0.022770	    0.095619	    0.072849	   -0.252744	   -0.222590	   -0.475334	   -0.201387	   -0.046268	   -0.247655	    0.111833	    0.123779	    0.235612	   -0.008630	    0.035154	    0.026524	    0.019621	   -0.012533	    0.007088	   -0.201485	   -0.167931	   -0.369416	   -0.029398	   -0.062764	   -0.092161	   -0.223858	   -0.182813	   -0.406671	   -0.256510	   -0.273676	   -0.530186	   -0.004560	   -0.011048	   -0.015609	    0.057602	    0.112683	    0.170285	    0.067116	    0.076522	    0.143638	    0.014576	    0.010487	    0.025063	    0.149539	    0.161709	    0.311248	    0.253500	    0.250859	    0.504359	    0.080658	    0.112189	    0.192847	   -0.061394	   -0.057388	   -0.118782	    0.092153	    0.050950	    0.143103
     1.275	0	0	    0	    0.074379	    0.061289	    0.135669	   -0.029892	    0.004854	   -0.025038	   -0.038531	    0.050902	    0.012371	   -0.002326	    0.096783	    0.094457	   -0.312455	   -0.118614	   -0.431070	   -0.253306	   -0.018715	   -0.272021	    0.129684	    0.116660	    0.246344	    0.001376	    0.037336	    0.038712	    0.021724	   -0.014928	    0.006796	   -0.234649	   -0.161274	   -0.395923	   -0.077029	   -0.066403	   -0.143433	   -0.223148	   -0.168623	   -0.391770	   -0.316376	   -0.197502	   -0.513878	   -0.004039	   -0.010580	   -0.014619	    0.056534	    0.115187	    0.171721	    0.074009	    0.084647	    0.158655	    0.011348	    0.018106	    0.029453	    0.189560	    0.170718	    0.360279	    0.311231	    0.260042	    0.571272	    0.083978	    0.112545	    0.196523	   -0.061356	   -0.060864	   -0.122220	    0.094203	    0.055186	    0.149389
     1.350	0	0	    0	    0.091379	    0.081756	    0.173135	   -0.039545	    0.011454	   -0.028090	   -0.074077	    0.073437	   -0.000640	   -0.034681	    0.108007	    0.073326	   -0.240780	   -0.258240	   -0.499019	   -0.303069	   -0.056094	   -0.359163	    0.125627	    0.136382	    0.262009	    0.002642	    0.040832	    0.043474	    0.016582	   -0.014795	    0.001787	   -0.255836	   -0.185893	   -0.441729	   -0.097069	   -0.083870	   -0.180939	   -0.245992	   -0.183663	   -0.429656	   -0.274518	   -0.329984	   -0.604502	   -0.011038	   -0.005723	   -0.016761	    0.048084	    0.115405	    0.163489	    0.074798	    0.092788	    0.167586	    0.019863	    0.014927	    0.034789	    0.203764	    0.201933	    0.405697	    0.321188	    0.299141	    0.620329	    0.091434	    0.120072	    0.211506	   -0.063951	   -0.058180	   -0.122131	    0.087970	    0.048750	    0.136719
     1.425	0	0	    0	    0.089285	    0.105806	    0.195091	   -0.046134	    0.011702	   -0.034433	   -0.040624	    0.052783	    0.012159	   -0.035640	    0.113062	    0.077422	   -0.256398	   -0.253240	   -0.509638	   -0.224635	   -0.092042	   -0.316677	    0.107196	    0.134530	    0.241726	   -0.002327	    0.045209	    0.042882	    0.009058	   -0.016241	   -0.007183	   -0.233742	   -0.193494	   -0.427236	   -0.034018	   -0.078010	   -0.112028	   -0.244131	   -0.185109	   -0.429240	   -0.245136	   -0.355445	   -0.600582	   -0.015146	   -0.006904	   -0.022050	    0.030178	    0.114827	    0.145005	    0.068058	    0.096707	    0.164764	    0.016578	    0.021475	    0.038053	    0.146554	    0.205096	    0.351650	    0.209896	    0.291605	    0.501501	    0.078266	    0.128103	    0.206369	   -0.068828	   -0.055729	   -0.124557	    0.068546	    0.042996	    0.111542
     1.500	0	0	    0	    0.032194	    0.088305	    0.120500	   -0.026750	    0.019180	   -0.007569	   -0.030242	   -0.011050	   -0.041292	   -0.009895	    0.078784	    0.068888	   -0.089734	   -0.141508	   -0.231242	   -0.056091	    0.004128	   -0.051963	    0.055443	    0.091283	    0.146726	   -0.027735	    0.046267	    0.018532	   -0.019453	   -0.024745	   -0.044198	    0.003054	   -0.124965	   -0.121912	   -0.030955	   -0.064733	   -0.095688	   -0.117811	   -0.180153	   -0.297964	   -0.150761	   -0.177692	   -0.328452	    0.008964	   -0.015193	   -0.006229	    0.029944	    0.093103	    0.123047	    0.050000	    0.077363	    0.127364	    0.002618	    0.028742	    0.031360	    0.019261	    0.113675	    0.132936	    0.037649	    0.135461	    0.173110	    0.003191	    0.117277	    0.120469	   -0.057006	   -0.052219	   -0.109225	    0.052415	    0.018704	    0.071119
     1.575	0	0	    0	   -0.005128	    0.006932	    0.001804	   -0.037775	   -0.003574	   -0.041349	   -0.036775	   -0.017731	   -0.054506	   -0.013396	    0.007883	   -0.005513	   -0.038072	   -0.019656	   -0.057728	   -0.029051	    0.007214	   -0.021837	    0.030635	    0.055905	    0.086541	   -0.014877	    0.036278	    0.021401	   -0.011464	   -0.004631	   -0.016095	    0.022053	    0.016117	    0.038170	   -0.006953	   -0.035523	   -0.042475	   -0.039957	   -0.059250	   -0.099207	   -0.009661	   -0.050095	   -0.059756	    0.024508	    0.028921	    0.053429	    0.033985	    0.096845	    0.130830	    0.048222	    0.059793	    0.108015	   -0.015101	    0.005621	   -0.009480	   -0.050060	    0.004595	   -0.045465	   -0.019097	    0.020412	    0.001315	   -0.032459	    0.038079	    0.005620	   -0.020590	   -0.027473	   -0.048063	    0.059546	    0.024605	    0.084150
     1.650	0	0	    0	   -0.005470	    0.000902	   -0.004568	   -0.035859	    0.007518	   -0.028340	   -0.035403	   -0.009033	   -0.044436	   -0.011561	   -0.007590	   -0.019152	   -0.021464	    0.002370	   -0.019094	   -0.026681	    0.020017	   -0.006664	    0.036456	    0.041384	    0.077840	   -0.013465	    0.048112	    0.034648	   -0.017963	    0.013751	   -0.004212	   -0.041265	    0.011046	   -0.030220	   -0.034714	   -0.017320	   -0.052034	   -0.030065	   -0.024440	   -0.054505	   -0.023650	    0.028044	    0.004395	    0.004051	    0.047940	    0.051990	    0.028418	    0.103740	    0.132158	    0.050134	    0.055766	    0.105901	   -0.027355	   -0.009002	   -0.036357	   -0.007121	   -0.022757	   -0.029878	    0.033789	   -0.015603	    0.018187	   -0.011947	   -0.007598	   -0.019545	   -0.023999	    0.005859	   -0.018141	    0.052721	    0.031670	    0.084391
     1.725	0	0	    0	    0.005097	   -0.003345	    0.001752	   -0.044489	    0.010010	   -0.034479	   -0.034956	    0.010199	   -0.024757	   -0.006044	    0.010181	    0.004137	   -0.047563	    0.003234	   -0.044329	   -0.029573	    0.030175	    0.000602	    0.066480	    0.057792	    0.124272	   -0.024833	    0.047925	    0.023092	   -0.037599	   -0.019448	   -0.057048	   -0.200177	   -0.070168	   -0.270345	   -0.060943	   -0.066358	   -0.127300	   -0.118660	   -0.036185	   -0.154845	   -0.145680	   -0.051800	   -0.197480	   -0.024376	    0.010057	   -0.014319	    0.026879	    0.097384	    0.124263	    0.035907	    0.052768	    0.088676	   -0.015700	   -0.005638	   -0.021338	    0.115874	    0.081026	    0.196901	    0.195136	    0.103002	    0.298139	    0.033469	    0.032701	    0.066170	   -0.070634	   -0.015452	   -0.086086	    0.046023	    0.024881	    0.070904
     1.800	0	0	    0	    0.037106	    0.033163	    0.070269	   -0.043551	    0.001887	   -0.041664	   -0.030621	    0.006696	   -0.023926	   -0.011635	    0.031864	    0.020229	   -0.135726	   -0.009716	   -0.145442	   -0.049561	    0.039564	   -0.009997	    0.065136	    0.081980	    0.147117	   -0.027680	    0.031313	    0.003634	   -0.013633	   -0.015344	   -0.028976	   -0.159527	   -0.160350	   -0.319878	   -0.029055	   -0.068084	   -0.097139	   -0.166115	   -0.132864	   -0.298979	   -0.178723	   -0.126707	   -0.305430	   -0.021724	   -0.010293	   -0.032017	    0.014362	    0.089630	    0.103992	    0.030418	    0.051890	    0.082307	   -0.019746	   -0.000444	   -0.020190	    0.051298	    0.127311	    0.178609	    0.095716	    0.180783	    0.276499	    0.041053	    0.091580	    0.132634	   -0.071253	   -0.045922	   -0.117175	    0.032882	    0.020863	    0.053745
     1.875	0	0	    0	   -0.007565	    0.026690	    0.019125	   -0.050450	    0.006691	   -0.043760	   -0.037245	    0.001108	   -0.036137	   -0.000152	    0.020892	    0.020741	   -0.053890	   -0.009864	   -0.063753	   -0.046043	    0.023680	   -0.022363	    0.030895	    0.057550	    0.088445	   -0.032647	    0.022481	   -0.010165	   -0.039084	   -0.016944	   -0.056028	   -0.043463	   -0.054672	   -0.098135	   -0.030774	   -0.043959	   -0.074733	   -0.059906	   -0.116297	   -0.176203	   -0.111302	   -0.112191	   -0.223493	   -0.023844	   -0.002641	   -0.026484	    0.005341	    0.085633	    0.090973	    0.021317	    0.037004	    0.058321	   -0.025420	    0.010239	   -0.015181	    0.007019	    0.039059	    0.046078	    0.030286	    0.052958	    0.083244	   -0.003736	    0.077039	    0.073303	   -0.055504	   -0.046956	   -0.102460	    0.026188	    0.014592	    0.040779
     1.950	0	0	    0	    0.001301	   -0.000922	    0.000380	   -0.026794	    0.002994	   -0.023800	   -0.016678	   -0.007017	   -0.023694	    0.002948	    0.009247	    0.012195	   -0.063733	   -0.000779	   -0.064513	   -0.043421	    0.026364	   -0.017057	    0.066918	    0.048602	    0.115521	   -0.032638	    0.022575	   -0.010063	   -0.035677	   -0.021677	   -0.057354	   -0.134444	   -0.041237	   -0.175681	   -0.048065	   -0.061393	   -0.109458	   -0.076198	   -0.039521	   -0.115719	   -0.150632	   -0.071578	   -0.222210	   -0.017607	   -0.000472	   -0.018079	    0.031228	    0.084902	    0.116130	    0.032994	    0.030843	    0.063837	   -0.009386	    0.000643	   -0.008743	    0.118050	    0.060394	    0.178443	    0.183308	    0.072233	    0.255540	    0.029832	    0.047620	    0.077452	   -0.052485	   -0.027450	   -0.079934	    0.055018	    0.015691	    0.070709
     2.025	0	0	    0	    0.046237	    0.019122	    0.065359	   -0.029946	    0.013615	   -0.016330	   -0.041381	    0.016973	   -0.024408	   -0.003289	    0.035167	    0.031878	   -0.145278	    0.016020	   -0.129258	   -0.083078	    0.048854	   -0.034224	    0.094318	    0.084795	    0.179113	   -0.014389	    0.027465	    0.013077	    0.004770	   -0.022892	   -0.018122	   -0.190974	   -0.132974	   -0.323949	   -0.054056	   -0.091737	   -0.145793	   -0.180594	   -0.090490	   -0.271084	   -0.209860	   -0.100140	   -0.310000	   -0.003058	   -0.005392	   -0.008449	    0.055142	    0.104744	    0.159887	    0.058532	    0.051826	    0.110358	   -0.011528	    0.010635	   -0.000892	    0.120936	    0.147317	    0.268253	    0.189115	    0.216612	    0.405727	    0.070814	    0.092927	    0.163740	   -0.052109	   -0.032767	   -0.084876	    0.082487	    0.033450	    0.115937
     2.100	0	0	    0	    0.021955	    0.049963	    0.071918	   -0.025081	    0.024690	   -0.000390	   -0.042275	    0.017423	   -0.024853	   -0.008498	    0.038227	    0.029729	   -0.094876	   -0.050335	   -0.145211	   -0.048585	    0.039779	   -0.008806	    0.052152	    0.088366	    0.140519	    0.008055	    0.038124	    0.046179	   -0.013220	   -0.008774	   -0.021995	    0.002409	   -0.092774	   -0.090365	    0.001678	   -0.061646	   -0.059968	   -0.116688	   -0.152080	   -0.268769	   -0.116351	   -0.132526	   -0.248878	    0.009486	   -0.007357	    0.002130	    0.059191	    0.125650	    0.184841	    0.067833	    0.074534	    0.142367	   -0.004745	    0.010915	    0.006171	   -0.030758	    0.075837	    0.045080	   -0.007858	    0.085646	    0.077788	    0.025440	    0.108307	    0.133747	   -0.043378	   -0.039610	   -0.082989	    0.081908	    0.055040	    0.136948
     2.175	0	0	    0	   -0.005244	    0.008546	    0.003302	   -0.032786	    0.016971	   -0.015815	   -0.023585	   -0.000782	   -0.024367	   -0.004423	    0.005806	    0.001383	   -0.027639	    0.006027	   -0.021612	   -0.035924	    0.025182	   -0.010742	    0.037603	    0.056653	    0.094256	    0.017776	    0.058878	    0.076655	    0.003438	    0.011539	    0.014977	    0.001108	    0.025859	    0.026967	    0.023528	    0.003825	    0.027353	   -0.040445	   -0.029083	   -0.069528	   -0.001720	   -0.009132	   -0.010851	    0.038489	    0.047077	    0.085566	    0.059539	    0.122293	    0.181832	    0.078072	    0.077352	    0.155424	   -0.037702	    0.009173	   -0.028529	   -0.039215	    0.000095	   -0.039119	   -0.015956	    0.001361	   -0.014595	   -0.058312	    0.025522	   -0.032790	   -0.010622	   -0.003685	   -0.014307	    0.099483	    0.053913	    0.153395
     2.250	0	0	    0	   -0.000516	    0.009764	    0.009248	   -0.032084	    0.020955	   -0.011129	   -0.024773	    0.008256	   -0.016516	   -0.006341	   -0.003489	   -0.009829	   -0.005918	    0.032001	    0.026082	   -0.031127	    0.030682	   -0.000446	    0.038379	    0.048468	    0.086846	    0.012929	    0.066414	    0.079343	   -0.004464	    0.027512	    0.023048	   -0.035511	    0.026803	   -0.008708	    0.001915	    0.010954	    0.012869	   -0.036448	   -0.019275	   -0.055723	   -0.013677	    0.054707	    0.041030	    0.019928	    0.069343	    0.089272	    0.053897	    0.127063	    0.180960	    0.074682	    0.076028	    0.150709	   -0.042113	   -0.020523	   -0.062636	   -0.008095	   -0.012661	   -0.020757	    0.016126	   -0.014372	    0.001753	   -0.028567	   -0.013423	   -0.041990	   -0.015568	    0.013105	   -0.002464	    0.081742	    0.070119	    0.151861
     2.325	0	0	    0	   -0.004229	    0.009054	    0.004825	   -0.033755	    0.014132	   -0.019623	   -0.013836	    0.011026	   -0.002810	    0.004467	    0.010241	    0.014707	   -0.021552	    0.024482	    0.002930	   -0.025497	    0.023463	   -0.002034	    0.062008	    0.054037	    0.116045	    0.006739	    0.066202	    0.072942	   -0.039122	   -0.003189	   -0.042311	   -0.160165	   -0.034418	   -0.194583	   -0.028008	   -0.037847	   -0.065855	   -0.080094	   -0.035484	   -0.115578	   -0.122120	    0.007990	   -0.114130	   -0.007901	    0.031800	    0.023899	    0.064486	    0.121135	    0.185621	    0.061187	    0.064551	    0.125738	   -0.028450	   -0.008887	   -0.037337	    0.103112	    0.060213	    0.163325	    0.144012	    0.058368	    0.202380	    0.019090	    0.015077	    0.034168	   -0.050206	    0.011700	   -0.038506	    0.088436	    0.052870	    0.141306
     2.400	0	0	    0	    0.043724	    0.012195	    0.055919	   -0.050983	    0.013255	   -0.037728	   -0.048260	    0.026056	   -0.022204	    0.001311	    0.030140	    0.031451	   -0.102452	    0.044370	   -0.058082	   -0.073045	    0.070207	   -0.002839	    0.092220	    0.079583	    0.171804	    0.006834	    0.057653	    0.064487	   -0.002580	   -0.026534	   -0.029114	   -0.267579	   -0.147899	   -0.415478	   -0.085056	   -0.063414	   -0.148470	   -0.163028	   -0.086502	   -0.249530	   -0.196821	   -0.081140	   -0.277961	   -0.009141	    0.006249	   -0.002892	    0.068059	    0.123353	    0.191413	    0.069615	    0.069091	    0.138707	   -0.047663	    0.002485	   -0.045178	    0.118927	    0.138468	    0.257395	    0.274376	    0.178946	    0.453322	    0.064852	    0.074370	    0.139223	   -0.064685	   -0.036627	   -0.101311	    0.092257	    0.062300	    0.154556
     2.475	0	0	    0	    0.065574	    0.056793	    0.122367	   -0.054708	    0.012766	   -0.041942	   -0.059226	    0.030976	   -0.028251	   -0.012273	    0.039756	    0.027483	   -0.287513	   -0.011477	   -0.298991	   -0.168980	    0.021484	   -0.147496	    0.114600	    0.103278	    0.217878	    0.020835	    0.044080	    0.064916	    0.002746	   -0.013176	   -0.010430	   -0.248768	   -0.167752	   -0.416520	   -0.057212	   -0.098751	   -0.155963	   -0.205768	   -0.160619	   -0.366387	   -0.283775	   -0.146738	   -0.430513	   -0.002642	   -0.000809	   -0.003452	    0.092280	    0.110519	    0.202799	    0.080468	    0.086072	    0.166540	   -0.018600	   -0.003045	   -0.021645	    0.138615	    0.168700	    0.307315	    0.269951	    0.278824	    0.548775	    0.073523	    0.121693	    0.195216	   -0.071413	   -0.039910	   -0.111323	    0.110059	    0.069938	    0.179996
     2.550	0	0	    0	    0.038623	    0.070548	    0.109171	   -0.038821	    0.012378	   -0.026443	   -0.046146	    0.020315	   -0.025831	    0.000311	    0.073925	    0.074236	   -0.200204	   -0.116875	   -0.317078	   -0.059076	    0.022195	   -0.036881	    0.066137	    0.116490	    0.182627	    0.028426	    0.048054	    0.076480	   -0.016796	   -0.006237	   -0.023033	   -0.053294	   -0.158292	   -0.211586	   -0.032951	   -0.044362	   -0.077313	   -0.171726	   -0.169874	   -0.341600	   -0.200311	   -0.187671	   -0.387982	   -0.018384	    0.005012	   -0.013373	    0.077887	    0.119569	    0.197455	    0.073255	    0.106414	    0.179669	   -0.018158	    0.017515	   -0.000643	    0.002650	    0.122984	    0.125634	    0.037142	    0.176601	    0.213743	    0.039557	    0.136399	    0.175956	   -0.082732	   -0.042632	   -0.125364	    0.085353	    0.081334	    0.166687
     2.625	0	0	    0	   -0.017737	    0.013801	   -0.003936	   -0.059183	    0.014849	   -0.044334	   -0.044306	   -0.003105	   -0.047411	   -0.008543	    0.023093	    0.014550	   -0.057943	   -0.006644	   -0.064588	   -0.062682	    0.027983	   -0.034699	    0.033447	    0.068701	    0.102148	    0.001118	    0.067257	    0.068375	   -0.031614	    0.001713	   -0.029901	   -0.010950	    0.002411	   -0.008540	   -0.018992	   -0.028615	   -0.047607	   -0.044484	   -0.071654	   -0.116138	   -0.087713	   -0.102824	   -0.190537	   -0.005510	    0.020603	    0.015093	    0.009477	    0.108225	    0.117702	    0.047049	    0.086810	    0.133859	   -0.026402	    0.009237	   -0.017165	   -0.039903	    0.029391	   -0.010512	   -0.005755	    0.035216	    0.029460	   -0.022631	    0.072010	    0.049379	   -0.044139	   -0.033577	   -0.077716	    0.035929	    0.038803	    0.074732
     2.700	0	0	    0	   -0.015688	   -0.000435	   -0.016123	   -0.043694	    0.012145	   -0.031549	   -0.036994	   -0.000597	   -0.037591	   -0.009480	    0.001564	   -0.007915	   -0.035848	    0.014527	   -0.021321	   -0.043523	    0.025887	   -0.017636	    0.022588	    0.046314	    0.068902	   -0.028113	    0.041556	    0.013442	   -0.038937	    0.000738	   -0.038199	   -0.019342	    0.003682	   -0.015660	   -0.020481	   -0.028976	   -0.049457	   -0.025006	   -0.020480	   -0.045486	   -0.059020	   -0.004161	   -0.063181	   -0.006455	    0.030344	    0.023889	   -0.011028	    0.074920	    0.063892	    0.031493	    0.052031	    0.083524	   -0.020189	    0.004039	   -0.016150	   -0.018374	    0.009579	   -0.008795	    0.007573	    0.014300	    0.021872	   -0.008639	    0.028981	    0.020342	   -0.026110	   -0.001769	   -0.027880	    0.019712	    0.018650	    0.038363
     2.775	0	0	    0	   -0.006620	   -0.001162	   -0.007782	   -0.024539	    0.017706	   -0.006833	   -0.022652	   -0.000193	   -0.022845	    0.001297	    0.000313	    0.001610	   -0.033491	    0.024775	   -0.008716	   -0.035560	    0.034173	   -0.001387	    0.040441	    0.035194	    0.075636	   -0.037737	    0.020323	   -0.017414	   -0.037291	   -0.005241	   -0.042532	   -0.087246	   -0.011535	   -0.098781	   -0.033883	   -0.048596	   -0.082479	   -0.024731	   -0.011619	   -0.036350	   -0.091053	    0.016260	   -0.074793	   -0.013425	    0.018829	    0.005404	    0.003717	    0.036023	    0.039740	    0.016743	    0.035971	    0.052714	   -0.008122	    0.014278	    0.006157	    0.076831	    0.032689	    0.109519	    0.139401	    0.043485	    0.182887	    0.039790	    0.039047	    0.078837	   -0.033175	    0.011411	   -0.021764	    0.006209	    0.004572	    0.010781
     2.850	0	0	    0	    0.033080	   -0.002501	    0.030579	   -0.031397	    0.027343	   -0.004054	   -0.039119	    0.024275	   -0.014844	    0.002613	    0.024144	    0.026756	   -0.106981	    0.030116	   -0.076865	   -0.060281	    0.067353	    0.007072	    0.076107	    0.061110	    0.137217	   -0.037312	    0.001818	   -0.035494	   -0.021909	   -0.023912	   -0.045821	   -0.177626	   -0.092167	   -0.269793	   -0.045694	   -0.077706	   -0.123400	   -0.138657	   -0.058659	   -0.197316	   -0.165262	   -0.054853	   -0.220115	   -0.015578	   -0.005715	   -0.021293	    0.016236	    0.031098	    0.047334	    0.013054	    0.026269	    0.039324	    0.003970	    0.032064	    0.036034	    0.129914	    0.130111	    0.260025	    0.226996	    0.185817	    0.412812	    0.080285	    0.098373	    0.178658	   -0.042752	   -0.007919	   -0.050671	    0.029399	   -0.010905	    0.018494
     2.925	0	0	    0	    0.028145	    0.038884	    0.067029	   -0.031776	    0.024161	   -0.007616	   -0.029883	    0.019110	   -0.010773	   -0.005288	    0.040166	    0.034877	   -0.140390	   -0.020627	   -0.161017	   -0.044609	    0.049395	    0.004786	    0.071080	    0.084802	    0.155882	   -0.014837	    0.001361	   -0.013476	   -0.011004	   -0.012128	   -0.023132	   -0.106304	   -0.120422	   -0.226726	   -0.024120	   -0.058144	   -0.082263	   -0.144964	   -0.137342	   -0.282306	   -0.163488	   -0.109491	   -0.272979	   -0.002651	    0.008409	    0.005758	    0.049612	    0.082048	    0.131660	    0.051729	    0.039854	    0.091583	    0.004716	    0.022562	    0.027278	    0.056617	    0.130696	    0.187313	    0.101331	    0.179527	    0.280858	    0.069158	    0.124598	    0.193756	   -0.054230	   -0.022924	   -0.077154	    0.071192	    0.026183	    0.097375
     3.000	0	0	    0	    0.000558	    0.018984	    0.019543	   -0.040515	    0.022209	   -0.018306	   -0.034744	    0.007809	   -0.026935	    0.010012	    0.028199	    0.038210	   -0.060469	    0.017833	   -0.042636	   -0.039202	    0.036303	   -0.002899	    0.047738	    0.066561	    0.114299	    0.007843	    0.042345	    0.050188	   -0.023626	   -0.005045	   -0.028671	   -0.012431	   -0.033555	   -0.045986	   -0.016898	   -0.042916	   -0.059814	   -0.041232	   -0.082897	   -0.124129	   -0.102794	   -0.086343	   -0.189136	    0.011703	    0.021892	    0.033596	    0.044623	    0.115764	    0.160388	    0.062323	    0.064687	    0.127010	   -0.005351	    0.024608	    0.019257	    0.008825	    0.059198	    0.068024	    0.022328	    0.065119	    0.087447	    0.015447	    0.110037	    0.125484	   -0.046825	   -0.018816	   -0.065642	    0.066317	    0.044137	    0.110454
     3.075	0	0	    0	   -0.005591	    0.007380	    0.001788	   -0.040337	    0.020814	   -0.019523	   -0.036260	    0.004318	   -0.031942	    0.002440	    0.009298	    0.011738	   -0.031252	    0.021294	   -0.009958	   -0.033458	    0.033749	    0.000291	    0.028000	    0.053327	    0.081327	   -0.003289	    0.067235	    0.063946	   -0.031191	    0.007995	   -0.023195	   -0.010584	    0.002258	   -0.008326	   -0.017559	   -0.033737	   -0.051295	   -0.010655	   -0.017726	   -0.028382	   -0.044186	   -0.002347	   -0.046533	    0.004481	    0.046696	    0.051178	    0.009054	    0.102108	    0.111162	    0.047173	    0.068372	    0.115545	   -0.010733	    0.017387	    0.006654	   -0.008348	    0.032279	    0.023931	    0.009230	    0.028268	    0.037498	    0.008677	    0.056315	    0.064993	   -0.025464	   -0.001654	   -0.027118	    0.031629	    0.034030	    0.065659
     3.150	0	0	    0	   -0.009259	    0.007109	   -0.002150	   -0.040848	    0.020588	   -0.020260	   -0.030167	   -0.000259	   -0.030426	    0.010396	    0.000458	    0.010854	   -0.032195	    0.036344	    0.004149	   -0.036833	    0.039352	    0.002518	    0.034627	    0.038547	    0.073174	   -0.031974	    0.049286	    0.017312	   -0.048188	   -0.001434	   -0.049622	   -0.083960	   -0.003846	   -0.087807	   -0.039985	   -0.046131	   -0.086115	   -0.014559	    0.000715	   -0.013843	   -0.096172	    0.024388	   -0.071783	   -0.020524	    0.028092	    0.007568	   -0.003624	    0.065309	    0.061685	    0.022597	    0.043644	    0.066241	   -0.010739	    0.019902	    0.009162	    0.066622	    0.029700	    0.096322	    0.110085	    0.032791	    0.142877	    0.028850	    0.046630	    0.075479	   -0.040610	    0.010790	   -0.029821	    0.016831	    0.010593	    0.027424
     3.225	0	0	    0	    0.022087	   -0.000342	    0.021745	   -0.052267	    0.024756	   -0.027511	   -0.041258	    0.026750	   -0.014507	    0.012907	    0.019340	    0.032247	   -0.076258	    0.049252	   -0.027006	   -0.052855	    0.068839	    0.015983	    0.074423	    0.054985	    0.129408	   -0.030148	    0.026782	   -0.003366	   -0.031125	   -0.029501	   -0.060626	   -0.216832	   -0.077672	   -0.294504	   -0.060643	   -0.072371	   -0.133014	   -0.118824	   -0.035681	   -0.154506	   -0.161827	   -0.047596	   -0.209423	   -0.024948	    0.001078	   -0.023870	    0.015684	    0.069260	    0.084944	    0.029504	    0.029391	    0.058896	   -0.015944	    0.031357	    0.015413	    0.125468	    0.126503	    0.251971	    0.220826	    0.164892	    0.385717	    0.065822	    0.094111	    0.159933	   -0.055690	   -0.010733	   -0.066423	    0.043501	    0.011460	    0.054961
     3.300	0	0	    0	    0.037114	    0.052335	    0.089448	   -0.050442	    0.019270	   -0.031172	   -0.034930	    0.023042	   -0.011888	   -0.002748	    0.041241	    0.038493	   -0.127010	   -0.005645	   -0.132655	   -0.045016	    0.053785	    0.008769	    0.059837	    0.082454	    0.142290	   -0.007594	    0.029422	    0.021828	   -0.019670	   -0.013410	   -0.033080	   -0.153736	   -0.144547	   -0.298282	   -0.030988	   -0.064674	   -0.095662	   -0.132563	   -0.121950	   -0.254512	   -0.167143	   -0.101038	   -0.268180	   -0.021222	    0.011623	   -0.009599	    0.040544	    0.096390	    0.136934	    0.047123	    0.055091	    0.102214	   -0.025308	    0.008002	   -0.017307	    0.054060	    0.139333	    0.193393	    0.082548	    0.179135	    0.261683	    0.052161	    0.125085	    0.177246	   -0.068116	   -0.020445	   -0.088560	    0.061943	    0.031056	    0.092998
     3.375	0	0	    0	   -0.004181	    0.033990	    0.029809	   -0.056674	    0.023493	   -0.033181	   -0.040749	    0.013768	   -0.026981	    0.009990	    0.028749	    0.038739	   -0.059184	    0.032171	   -0.027013	   -0.044194	    0.036265	   -0.007929	    0.037210	    0.057111	    0.094322	   -0.005378	    0.049142	    0.043765	   -0.038714	   -0.010430	   -0.049144	   -0.025204	   -0.043244	   -0.068448	   -0.023629	   -0.044584	   -0.068213	   -0.046375	   -0.072311	   -0.118685	   -0.121707	   -0.080090	   -0.201797	   -0.005001	    0.015013	    0.010012	    0.014967	    0.106566	    0.121533	    0.039455	    0.058338	    0.097792	   -0.020176	    0.012173	   -0.008003	    0.005498	    0.061646	    0.067144	    0.018066	    0.063636	    0.081702	    0.001236	    0.104108	    0.105345	   -0.060255	   -0.019715	   -0.079971	    0.037775	    0.033378	    0.071154
     3.450	0	0	    0	   -0.006954	    0.008989	    0.002035	   -0.040271	    0.020085	   -0.020186	   -0.033206	    0.008984	   -0.024222	    0.005202	    0.008202	    0.013404	   -0.026795	    0.017105	   -0.009691	   -0.028950	    0.036596	    0.007646	    0.018845	    0.045321	    0.064166	   -0.028263	    0.052096	    0.023833	   -0.037112	    0.002851	   -0.034260	   -0.013331	    0.000129	   -0.013203	   -0.016719	   -0.036064	   -0.052783	   -0.004885	   -0.021483	   -0.026368	   -0.043373	   -0.011765	   -0.055137	   -0.002567	    0.030980	    0.028414	   -0.008168	    0.057085	    0.048917	    0.023282	    0.043869	    0.067151	   -0.003572	    0.020568	    0.016997	    0.003705	    0.038831	    0.042535	    0.015125	    0.032916	    0.048041	    0.015932	    0.063603	    0.079535	   -0.022377	   -0.001633	   -0.024011	    0.018381	    0.010392	    0.028774
     3.525	0	0	    0	   -0.004304	    0.007359	    0.003056	   -0.029705	    0.026189	   -0.003517	   -0.028775	    0.011044	   -0.017731	    0.004698	    0.004758	    0.009456	   -0.018291	    0.036404	    0.018113	   -0.022171	    0.040769	    0.018598	    0.012604	    0.035380	    0.047985	   -0.031045	    0.020249	   -0.010796	   -0.034805	   -0.001514	   -0.036319	   -0.013471	    0.004699	   -0.008772	   -0.016558	   -0.036236	   -0.052793	    0.003091	   -0.002512	    0.000579	   -0.035762	    0.029116	   -0.006646	   -0.010094	    0.030004	    0.019909	   -0.009069	    0.036509	    0.027439	    0.016978	    0.030831	    0.047809	    0.006867	    0.024752	    0.031620	    0.011084	    0.035419	    0.046503	    0.023759	    0.030240	    0.053998	    0.028409	    0.059655	    0.088064	   -0.017879	    0.015240	   -0.002639	    0.010801	    0.006753	    0.017555
     3.600	0	0	    0	    0.000991	    0.006837	    0.007828	   -0.026609	    0.025507	   -0.001103	   -0.021680	    0.008311	   -0.013369	    0.017189	    0.002196	    0.019385	   -0.028924	    0.043890	    0.014966	   -0.025105	    0.042887	    0.017781	    0.036611	    0.029154	    0.065765	   -0.031082	    0.010758	   -0.020324	   -0.045068	   -0.004056	   -0.049124	   -0.085419	   -0.023153	   -0.108571	   -0.032856	   -0.046716	   -0.079572	   -0.014903	    0.008703	   -0.006200	   -0.101934	    0.022297	   -0.079638	   -0.027034	    0.012854	   -0.014180	   -0.010739	    0.036232	    0.025493	    0.005268	    0.024653	    0.029921	    0.007980	    0.027567	    0.035546	    0.088031	    0.058180	    0.146211	    0.126400	    0.058732	    0.185132	    0.052627	    0.064435	    0.117062	   -0.037026	    0.017935	   -0.019091	    0.001692	   -0.002589	   -0.000897
     3.675	0	0	    0	    0.030990	    0.008245	    0.039236	   -0.028722	    0.029809	    0.001087	   -0.023054	    0.029265	    0.006211	    0.018095	    0.024119	    0.042214	   -0.070490	    0.060035	   -0.010455	   -0.029632	    0.065791	    0.036158	    0.058725	    0.057809	    0.116535	   -0.030886	    0.004512	   -0.026373	   -0.031224	   -0.024209	   -0.055433	   -0.144977	   -0.084908	   -0.229885	   -0.025655	   -0.066098	   -0.091753	   -0.106686	   -0.036667	   -0.143353	   -0.144660	   -0.044214	   -0.188874	   -0.022462	   -0.011542	   -0.034003	    0.011510	    0.033533	    0.045043	    0.003329	    0.018035	    0.021365	    0.006084	    0.035356	    0.041439	    0.111165	    0.126277	    0.237441	    0.166109	    0.160533	    0.326642	    0.072956	    0.110533	    0.183489	   -0.045010	   -0.003601	   -0.048610	    0.021775	   -0.006323	    0.015452
     3.750	0	0	    0	    0.020316	    0.034690	    0.055006	   -0.033667	    0.026322	   -0.007345	   -0.021540	    0.027888	    0.006348	    0.023764	    0.033534	    0.057298	   -0.057808	    0.023660	   -0.034147	   -0.023040	    0.059873	    0.036833	    0.045690	    0.071626	    0.117316	   -0.014708	    0.008069	   -0.006639	   -0.029646	   -0.017063	   -0.046710	   -0.064194	   -0.090960	   -0.155154	   -0.018447	   -0.045605	   -0.064052	   -0.070573	   -0.087721	   -0.158294	   -0.123345	   -0.070362	   -0.193707	   -0.019858	    0.001452	   -0.018405	    0.006109	    0.065094	    0.071204	    0.027445	    0.033272	    0.060717	    0.012683	    0.030630	    0.043312	    0.047392	    0.113519	    0.160910	    0.073091	    0.129137	    0.202228	    0.065322	    0.124414	    0.189736	   -0.042272	   -0.011965	   -0.054237	    0.025272	    0.022671	    0.047943
     3.825	0	0	    0	   -0.000709	    0.017261	    0.016552	   -0.041625	    0.019692	   -0.021932	   -0.029033	    0.019332	   -0.009700	    0.016812	    0.025508	    0.042321	   -0.045661	    0.038645	   -0.007016	   -0.029816	    0.040848	    0.011033	    0.020063	    0.047167	    0.067230	   -0.029926	    0.022239	   -0.007687	   -0.036390	   -0.013341	   -0.049731	   -0.009997	   -0.018492	   -0.028489	   -0.016927	   -0.037906	   -0.054833	   -0.018906	   -0.046644	   -0.065551	   -0.086342	   -0.047691	   -0.134033	   -0.023849	    0.007529	   -0.016320	   -0.007309	    0.042612	    0.035303	    0.009730	    0.028955	    0.038686	    0.008481	    0.036358	    0.044839	    0.015966	    0.062247	    0.078213	    0.029301	    0.060891	    0.090193	    0.026359	    0.105352	    0.131712	   -0.029865	   -0.002488	   -0.032353	    0.001293	    0.005674	    0.006967
     3.900	0	0	    0	   -0.003217	    0.007063	    0.003845	   -0.039108	    0.021805	   -0.017303	   -0.029968	    0.015485	   -0.014484	    0.008353	    0.011770	    0.020123	   -0.030858	    0.028341	   -0.002518	   -0.027653	    0.038795	    0.011142	    0.010167	    0.035783	    0.045950	   -0.024297	    0.010621	   -0.013677	   -0.042323	   -0.004842	   -0.047166	   -0.016069	    0.001311	   -0.014759	   -0.019392	   -0.034819	   -0.054211	   -0.003148	   -0.009205	   -0.012353	   -0.060446	   -0.001179	   -0.061625	   -0.021829	    0.010810	   -0.011019	   -0.013061	    0.042506	    0.029445	    0.004923	    0.023396	    0.028320	    0.009315	    0.036455	    0.045771	    0.008121	    0.048722	    0.056843	    0.022115	    0.043525	    0.065639	    0.024782	    0.073459	    0.098241	   -0.016930	    0.013572	   -0.003358	   -0.006640	    0.000139	   -0.006502
     3.975	0	0	    0	   -0.004822	    0.008968	    0.004146	   -0.038038	    0.024003	   -0.014034	   -0.032799	    0.015584	   -0.017215	    0.005819	    0.007611	    0.013430	   -0.024117	    0.038103	    0.013986	   -0.025111	    0.039931	    0.014820	    0.010961	    0.026762	    0.037724	   -0.021430	    0.015616	   -0.005814	   -0.046265	   -0.005417	   -0.051682	   -0.041455	    0.007420	   -0.034035	   -0.032572	   -0.032970	   -0.065541	    0.001731	   -0.000902	    0.000829	   -0.061901	    0.011542	   -0.050359	   -0.028816	    0.013899	   -0.014917	   -0.017522	    0.043908	    0.026386	    0.000994	    0.019649	    0.020643	    0.006485	    0.034884	    0.041369	    0.026137	    0.037375	    0.063513	    0.042301	    0.029019	    0.071320	    0.023891	    0.069617	    0.093509	   -0.021520	    0.020715	   -0.000805	   -0.010879	    0.000015	   -0.010865
     4.050	0	0	    0	    0.005811	    0.006187	    0.011998	   -0.051230	    0.029610	   -0.021621	   -0.037224	    0.034763	   -0.002461	    0.016482	    0.017443	    0.033925	   -0.043993	    0.031928	   -0.012065	   -0.024054	    0.047744	    0.023690	    0.055273	    0.038528	    0.093801	   -0.021911	    0.015385	   -0.006526	   -0.051358	   -0.026643	   -0.078001	   -0.230754	   -0.024362	   -0.255116	   -0.088903	   -0.055264	   -0.144167	   -0.067672	    0.001587	   -0.066085	   -0.151661	   -0.021467	   -0.173128	   -0.039037	   -0.002316	   -0.041353	    0.008701	    0.038685	    0.047387	    0.003951	    0.011060	    0.015011	   -0.007641	    0.035779	    0.028137	    0.152407	    0.112563	    0.264970	    0.274723	    0.116214	    0.390938	    0.056137	    0.087484	    0.143620	   -0.060592	    0.011241	   -0.049350	    0.015160	   -0.006577	    0.008583
     4.125	0	0	    0	    0.069424	    0.061595	    0.131019	   -0.046436	    0.028094	   -0.018342	   -0.068215	    0.029840	   -0.038375	   -0.025483	    0.056339	    0.030856	   -0.264209	    0.044458	   -0.219751	   -0.158662	    0.041172	   -0.117490	    0.096391	    0.091500	    0.187891	   -0.017062	    0.014521	   -0.002541	   -0.001735	   -0.011390	   -0.013125	   -0.248929	   -0.157027	   -0.405956	   -0.063206	   -0.107476	   -0.170682	   -0.175299	   -0.101940	   -0.277239	   -0.265494	   -0.100033	   -0.365526	   -0.018669	   -0.010742	   -0.029412	   -0.002307	    0.047257	    0.044951	    0.017397	    0.041113	    0.058510	    0.000964	    0.026564	    0.027527	    0.161992	    0.179685	    0.341677	    0.291848	    0.275795	    0.567643	    0.091178	    0.133053	    0.224231	   -0.051883	   -0.018142	   -0.070025	    0.005840	    0.002930	    0.008770
     4.200	0	0	    0	    0.056768	    0.090211	    0.146979	   -0.024874	    0.025562	    0.000689	   -0.045718	    0.032560	   -0.013158	    0.006488	    0.074483	    0.080971	   -0.219267	   -0.094241	   -0.313508	   -0.053505	    0.018347	   -0.035158	    0.072795	    0.099387	    0.172182	   -0.031132	    0.017648	   -0.013485	   -0.009334	    0.002555	   -0.006778	   -0.099233	   -0.167500	   -0.266733	   -0.011959	   -0.060951	   -0.072910	   -0.146262	   -0.136741	   -0.283002	   -0.182100	   -0.153682	   -0.335782	   -0.024026	   -0.009593	   -0.033619	   -0.016228	    0.042527	    0.026299	   -0.000926	    0.034172	    0.033245	    0.018834	    0.038444	    0.057278	    0.067384	    0.167034	    0.234418	    0.116115	    0.225853	    0.341968	    0.081837	    0.153814	    0.235651	   -0.051893	   -0.012280	   -0.064173	   -0.000827	   -0.005683	   -0.006510
     4.275	0	0	    0	   -0.003042	    0.036728	    0.033685	   -0.004852	    0.025561	    0.020709	   -0.032428	    0.001850	   -0.030579	    0.006147	    0.047184	    0.053331	   -0.065620	    0.011361	   -0.054259	   -0.026401	    0.041317	    0.014916	    0.019969	    0.061832	    0.081801	   -0.021155	   -0.016448	   -0.037603	   -0.023471	    0.004085	   -0.019387	    0.015567	   -0.005511	    0.010056	    0.005589	   -0.032763	   -0.027174	   -0.035137	   -0.069581	   -0.104718	   -0.093748	   -0.088250	   -0.181998	    0.010265	    0.001891	    0.012156	   -0.003455	   -0.000517	   -0.003972	   -0.040492	    0.005496	   -0.034996	    0.024701	    0.045418	    0.070120	    0.015596	    0.074127	    0.089723	    0.019428	    0.074060	    0.093489	    0.029825	    0.122247	    0.152072	   -0.023912	   -0.009733	   -0.033645	   -0.008207	   -0.014734	   -0.022941
     4.350	0	0	    0	   -0.020795	   -0.011778	   -0.032573	    0.001810	    0.041492	    0.043302	   -0.032028	    0.006590	   -0.025438	    0.001923	    0.008125	    0.010048	   -0.027796	    0.020046	   -0.007749	   -0.018646	    0.046721	    0.028074	   -0.010525	    0.026969	    0.016444	   -0.039376	   -0.055169	   -0.094545	   -0.028781	   -0.011547	   -0.040328	    0.017784	    0.026440	    0.044223	    0.009723	   -0.005196	    0.004527	    0.005195	   -0.004838	    0.000358	   -0.035245	    0.007649	   -0.027595	   -0.012563	    0.028089	    0.015526	    0.001776	   -0.013785	   -0.012010	   -0.028292	   -0.013006	   -0.041298	    0.038133	    0.062510	    0.100644	    0.005028	    0.037804	    0.042832	    0.015822	    0.027969	    0.043790	    0.033461	    0.078911	    0.112372	   -0.001343	    0.036118	    0.034775	   -0.008358	   -0.013993	   -0.022351
     4.425	0	0	    0	   -0.018068	   -0.017337	   -0.035405	   -0.002142	    0.043028	    0.040886	   -0.026044	    0.006946	   -0.019098	    0.014988	    0.001120	    0.016109	   -0.028383	    0.036950	    0.008567	   -0.016383	    0.051551	    0.035169	    0.004576	    0.019618	    0.024194	   -0.032192	   -0.065645	   -0.097837	   -0.047536	   -0.006257	   -0.053794	   -0.032200	    0.002950	   -0.029250	   -0.006681	   -0.017758	   -0.024438	    0.001355	    0.014545	    0.015900	   -0.076973	    0.020714	   -0.056258	   -0.035290	    0.002001	   -0.033289	   -0.010828	   -0.017670	   -0.028498	   -0.030220	   -0.008794	   -0.039014	    0.032849	    0.061962	    0.094810	    0.057359	    0.047139	    0.104497	    0.088769	    0.047797	    0.136566	    0.055897	    0.080709	    0.136606	   -0.016421	    0.035700	    0.019279	   -0.020315	   -0.018765	   -0.039080
     4.500	0	0	    0	   -0.008410	   -0.014269	   -0.022679	   -0.009056	    0.038992	    0.029936	   -0.021495	    0.017698	   -0.003797	    0.015075	    0.014216	    0.029290	   -0.022379	    0.026280	    0.003900	   -0.014936	    0.060036	    0.045101	    0.022382	    0.036278	    0.058660	   -0.025603	   -0.067046	   -0.092649	   -0.048024	   -0.027956	   -0.075980	   -0.040940	   -0.033037	   -0.073977	   -0.000285	   -0.027918	   -0.028202	   -0.037900	   -0.019458	   -0.057358	   -0.084892	   -0.024196	   -0.109088	   -0.025656	   -0.013001	   -0.038658	   -0.010133	   -0.018286	   -0.028418	   -0.039697	   -0.008373	   -0.048070	    0.026020	    0.057310	    0.083330	    0.061977	    0.088541	    0.150519	    0.097240	    0.108036	    0.205276	    0.072763	    0.112180	    0.184943	   -0.017552	    0.020678	    0.003126	   -0.018981	   -0.023206	   -0.042187
     4.575	0	0	    0	   -0.018840	   -0.007559	   -0.026399	   -0.026822	    0.032845	    0.006023	   -0.024299	    0.019777	   -0.004522	    0.014781	    0.015529	    0.030311	   -0.033920	    0.040582	    0.006662	   -0.021966	    0.048934	    0.026968	    0.007746	    0.032671	    0.040417	   -0.019399	   -0.045021	   -0.064420	   -0.052826	   -0.025379	   -0.078205	   -0.003237	   -0.017956	   -0.021194	    0.002137	   -0.018462	   -0.016325	   -0.012656	   -0.033271	   -0.045927	   -0.070126	   -0.022572	   -0.092698	   -0.021649	   -0.011317	   -0.032965	   -0.006397	   -0.013675	   -0.020072	   -0.035017	   -0.014159	   -0.049176	    0.022367	    0.047979	    0.070346	    0.029949	    0.071906	    0.101855	    0.051163	    0.078624	    0.129787	    0.057422	    0.117999	    0.175420	   -0.016719	    0.015621	   -0.001099	   -0.020284	   -0.021810	   -0.042094
     4.650	0	0	    0	   -0.022313	   -0.014384	   -0.036697	   -0.039645	    0.026319	   -0.013326	   -0.031767	    0.015726	   -0.016041	    0.011071	    0.010665	    0.021735	   -0.033213	    0.030675	   -0.002539	   -0.023347	    0.044085	    0.020738	    0.023885	    0.024661	    0.048546	   -0.013333	   -0.028495	   -0.041828	   -0.052935	   -0.027326	   -0.080261	    0.001229	    0.008917	    0.010146	   -0.002864	   -0.016162	   -0.019026	    0.002789	   -0.006161	   -0.003372	   -0.065441	    0.000874	   -0.064568	   -0.005331	   -0.005741	   -0.011072	    0.012222	    0.013512	    0.025734	    0.004954	   -0.017981	   -0.013027	    0.009833	    0.045824	    0.055656	    0.014461	    0.053769	    0.068230	    0.032329	    0.053757	    0.086085	    0.038680	    0.095731	    0.134412	   -0.016006	    0.018395	    0.002388	    0.033383	   -0.023653	    0.009730
     4.725	0	0	    0	   -0.014713	   -0.000753	   -0.015466	   -0.040736	    0.022591	   -0.018145	   -0.034686	    0.011262	   -0.023425	    0.007790	    0.007329	    0.015119	   -0.026538	    0.031486	    0.004948	   -0.023281	    0.044719	    0.021438	    0.034688	    0.051736	    0.086424	    0.026123	    0.017772	    0.043895	   -0.028970	    0.003971	   -0.024998	   -0.001034	    0.010743	    0.009709	   -0.005810	   -0.018208	   -0.024018	    0.007149	    0.001768	    0.008917	   -0.060849	    0.006048	   -0.054801	    0.016162	    0.035551	    0.051713	    0.025136	    0.095932	    0.121067	    0.070166	    0.066799	    0.136965	    0.002029	    0.030537	    0.032567	    0.002167	    0.043867	    0.046033	    0.018188	    0.041525	    0.059713	    0.029360	    0.080948	    0.110308	   -0.020864	    0.018028	   -0.002836	    0.061127	    0.046869	    0.107996
     4.800	0	0	    0	   -0.018994	    0.003406	   -0.015588	   -0.038249	    0.022548	   -0.015701	   -0.034705	    0.010426	   -0.024279	    0.006394	    0.002043	    0.008437	   -0.024422	    0.037826	    0.013404	   -0.020245	    0.044005	    0.023759	    0.028022	    0.045479	    0.073501	   -0.018642	    0.082102	    0.063460	   -0.059874	    0.016990	   -0.042884	   -0.043681	    0.024746	   -0.018935	   -0.024932	   -0.020337	   -0.045268	    0.010477	    0.007129	    0.017605	   -0.068608	    0.017791	   -0.050817	   -0.018816	    0.037307	    0.018491	   -0.020042	    0.055301	    0.035259	    0.013251	    0.074389	    0.087640	    0.005264	    0.032006	    0.037270	    0.081264	    0.019339	    0.100603	    0.108185	    0.017525	    0.125710	    0.036578	    0.069812	    0.106390	   -0.020525	    0.020215	   -0.000310	    0.006564	    0.008812	    0.015376
     4.875	0	0	    0	    0.046544	   -0.013032	    0.033511	   -0.035784	    0.028386	   -0.007398	   -0.066419	    0.044575	   -0.021845	    0.028324	    0.013530	    0.041854	   -0.062232	    0.040442	   -0.021790	   -0.064073	    0.101369	    0.037296	    0.088738	    0.058195	    0.146933	   -0.040570	    0.009801	   -0.030769	   -0.019100	   -0.031025	   -0.050124	   -0.208294	   -0.080501	   -0.288794	   -0.093373	   -0.066678	   -0.160051	   -0.085504	   -0.019200	   -0.104704	   -0.138158	   -0.018908	   -0.157066	   -0.023487	   -0.002672	   -0.026160	   -0.009206	    0.031292	    0.022085	    0.009375	    0.031855	    0.041230	    0.013173	    0.041387	    0.054559	    0.176038	    0.153367	    0.329406	    0.305367	    0.191006	    0.496373	    0.106462	    0.106075	    0.212537	   -0.018200	    0.004440	   -0.013760	    0.002492	   -0.008538	   -0.006045
     4.950	0	0	    0	    0.078490	    0.072667	    0.151157	   -0.045360	    0.037118	   -0.008242	   -0.071721	    0.050494	   -0.021227	    0.016971	    0.060607	    0.077578	   -0.321662	    0.005729	   -0.315932	   -0.219823	    0.014720	   -0.205102	    0.115053	    0.108394	    0.223447	   -0.043858	   -0.006831	   -0.050689	   -0.005829	   -0.007989	   -0.013819	   -0.245019	   -0.153053	   -0.398071	   -0.050718	   -0.081380	   -0.132098	   -0.150016	   -0.101814	   -0.251831	   -0.262682	   -0.112716	   -0.375398	   -0.011525	   -0.009371	   -0.020895	   -0.005763	    0.031493	    0.025730	    0.009332	    0.031430	    0.040762	    0.021055	    0.034292	    0.055348	    0.187034	    0.201534	    0.388568	    0.314194	    0.300181	    0.614375	    0.118919	    0.147725	    0.266644	   -0.033298	   -0.003763	   -0.037060	    0.010862	   -0.014252	   -0.003389
     5.025	0	0	    0	    0.058697	    0.099840	    0.158538	   -0.038517	    0.027122	   -0.011394	   -0.052777	    0.053832	    0.001055	    0.023822	    0.115547	    0.139369	   -0.242685	   -0.133977	   -0.376662	   -0.068942	   -0.001693	   -0.070635	    0.086536	    0.113453	    0.199988	   -0.045819	   -0.013700	   -0.059520	   -0.024473	    0.001471	   -0.023001	   -0.156298	   -0.160055	   -0.316352	   -0.020068	   -0.041088	   -0.061156	   -0.135589	   -0.124616	   -0.260205	   -0.179177	   -0.164172	   -0.343349	   -0.018213	   -0.004439	   -0.022653	    0.004123	    0.032039	    0.036163	    0.014765	    0.038489	    0.053253	    0.012596	    0.041811	    0.054407	    0.115964	    0.165637	    0.281601	    0.145129	    0.206672	    0.351801	    0.086514	    0.160509	    0.247022	   -0.044101	   -0.014547	   -0.058647	    0.017797	   -0.000769	    0.017028
     5.100	0	0	    0	    0.046319	    0.056409	    0.102728	   -0.037611	    0.030690	   -0.006920	   -0.042254	    0.019288	   -0.022965	    0.046200	    0.079803	    0.126003	   -0.133389	    0.010446	   -0.122943	   -0.098501	    0.064892	   -0.033609	    0.101783	    0.088322	    0.190104	   -0.044736	   -0.011471	   -0.056207	   -0.026975	   -0.024204	   -0.051178	   -0.214364	   -0.084659	   -0.299023	   -0.043160	   -0.047346	   -0.090506	   -0.090547	   -0.055567	   -0.146114	   -0.177739	   -0.079458	   -0.257197	   -0.021026	   -0.013873	   -0.034900	    0.000266	    0.035707	    0.035972	    0.026206	    0.041545	    0.067751	    0.018836	    0.040837	    0.059673	    0.175220	    0.146553	    0.321772	    0.274267	    0.161629	    0.435896	    0.077275	    0.125135	    0.202410	   -0.042898	   -0.019330	   -0.062227	    0.017087	   -0.005139	    0.011948
     5.175	0	0	    0	    0.082989	    0.081632	    0.164621	   -0.055424	    0.041728	   -0.013696	   -0.083822	    0.065659	   -0.018163	    0.016450	    0.119969	    0.136419	   -0.304916	    0.018664	   -0.286252	   -0.268825	    0.030618	   -0.238208	    0.122097	    0.121565	    0.243663	   -0.036765	   -0.008919	   -0.045685	   -0.012325	   -0.018199	   -0.030524	   -0.268555	   -0.153066	   -0.421621	   -0.096183	   -0.079101	   -0.175284	   -0.180750	   -0.089991	   -0.270741	   -0.285579	   -0.099257	   -0.384836	   -0.014702	   -0.008655	   -0.023357	    0.012060	    0.033618	    0.045678	    0.034119	    0.053034	    0.087153	    0.024341	    0.044704	    0.069044	    0.211592	    0.214909	    0.426501	    0.352377	    0.292661	    0.645038	    0.102679	    0.134998	    0.237677	   -0.043458	   -0.016253	   -0.059711	    0.029980	   -0.006854	    0.023126
     5.250	0	0	    0	    0.074644	    0.123489	    0.198133	   -0.073264	    0.035200	   -0.038064	   -0.118539	    0.103017	   -0.015522	   -0.030893	    0.166011	    0.135117	   -0.245226	   -0.256094	   -0.501320	   -0.333978	   -0.051434	   -0.385412	    0.104507	    0.152372	    0.256879	   -0.024262	    0.006309	   -0.017954	   -0.009306	   -0.007365	   -0.016671	   -0.280508	   -0.175982	   -0.456490	   -0.115268	   -0.079307	   -0.194574	   -0.224565	   -0.131045	   -0.355610	   -0.267040	   -0.297720	   -0.564760	   -0.022068	    0.006005	   -0.016063	    0.032904	    0.066698	    0.099603	    0.053404	    0.070977	    0.124381	    0.026287	    0.056897	    0.083184	    0.206859	    0.239873	    0.446732	    0.341183	    0.334965	    0.676147	    0.103651	    0.157881	    0.261532	   -0.050732	   -0.018161	   -0.068892	    0.066259	    0.017564	    0.083823
     5.325	0	0	    0	    0.070951	    0.120173	    0.191124	   -0.080790	    0.031169	   -0.049621	   -0.131745	    0.108075	   -0.023670	   -0.057256	    0.167995	    0.110740	   -0.285429	   -0.240357	   -0.525785	   -0.342632	   -0.094455	   -0.437087	    0.123680	    0.129531	    0.253212	   -0.005192	    0.032599	    0.027408	   -0.006080	   -0.007650	   -0.013729	   -0.287846	   -0.181642	   -0.469488	   -0.131680	   -0.088058	   -0.219738	   -0.251269	   -0.142756	   -0.394025	   -0.302669	   -0.316453	   -0.619122	   -0.003484	   -0.002561	   -0.006045	    0.049074	    0.100917	    0.149991	    0.073587	    0.093032	    0.166619	    0.023756	    0.064171	    0.087927	    0.205375	    0.246131	    0.451506	    0.329204	    0.336481	    0.665685	    0.099276	    0.160640	    0.259916	   -0.060806	   -0.021757	   -0.082564	    0.074427	    0.053093	    0.127520
     5.400	0	0	    0	    0.068029	    0.121706	    0.189736	   -0.084663	    0.030878	   -0.053784	   -0.120137	    0.100663	   -0.019473	   -0.064364	    0.158024	    0.093661	   -0.285576	   -0.240492	   -0.526068	   -0.335997	   -0.103375	   -0.439372	    0.115574	    0.135603	    0.251177	    0.000976	    0.048449	    0.049425	   -0.011053	   -0.003173	   -0.014226	   -0.293052	   -0.179682	   -0.472734	   -0.119495	   -0.094937	   -0.214432	   -0.261803	   -0.155578	   -0.417381	   -0.312505	   -0.329608	   -0.642113	   -0.009735	    0.000755	   -0.008980	    0.013294	    0.116485	    0.129779	    0.064156	    0.111737	    0.175893	    0.016441	    0.068490	    0.084931	    0.182925	    0.243890	    0.426815	    0.306192	    0.327452	    0.633644	    0.085417	    0.166062	    0.251479	   -0.069448	   -0.024939	   -0.094386	    0.049018	    0.051792	    0.100810
     5.475	0	0	    0	    0.047271	    0.116602	    0.163873	   -0.073745	    0.024711	   -0.049034	   -0.054675	    0.067243	    0.012568	   -0.028197	    0.144143	    0.115947	   -0.277248	   -0.245121	   -0.522369	   -0.250130	   -0.108629	   -0.358758	    0.079914	    0.125777	    0.205691	   -0.051116	    0.054521	    0.003404	   -0.032903	   -0.006523	   -0.039426	   -0.231485	   -0.190184	   -0.421669	   -0.073147	   -0.079724	   -0.152871	   -0.246882	   -0.164049	   -0.410930	   -0.260812	   -0.341134	   -0.601946	   -0.037036	   -0.008698	   -0.045734	   -0.034869	    0.055729	    0.020860	    0.013881	    0.087274	    0.101155	    0.005785	    0.065337	    0.071122	    0.094340	    0.220853	    0.315193	    0.189489	    0.291757	    0.481246	    0.059440	    0.165560	    0.225001	   -0.080040	   -0.026677	   -0.106717	   -0.003621	    0.006882	    0.003261
     5.550	0	0	    0	   -0.007721	    0.064611	    0.056890	   -0.063982	    0.021548	   -0.042435	   -0.073612	   -0.003293	   -0.076904	   -0.004257	    0.077876	    0.073620	   -0.137219	   -0.098161	   -0.235381	   -0.088810	    0.009178	   -0.079632	    0.053428	    0.083606	    0.137034	   -0.074773	   -0.002311	   -0.077084	   -0.036020	   -0.016050	   -0.052070	   -0.047945	   -0.060036	   -0.107981	   -0.038905	   -0.086704	   -0.125608	   -0.137908	   -0.153329	   -0.291237	   -0.182984	   -0.152946	   -0.335929	   -0.006952	   -0.027286	   -0.034238	   -0.013570	    0.017247	    0.003677	    0.010004	    0.042058	    0.052062	   -0.019048	    0.062288	    0.043241	    0.001358	    0.129712	    0.131070	    0.051415	    0.169212	    0.220627	    0.008274	    0.140425	    0.148699	   -0.067621	   -0.034285	   -0.101907	   -0.005412	   -0.012281	   -0.017693
     5.625	0	0	    0	   -0.017643	    0.009814	   -0.007829	   -0.037702	    0.024909	   -0.012793	   -0.055999	   -0.013525	   -0.069524	   -0.011998	    0.024315	    0.012317	   -0.056687	   -0.004876	   -0.061563	   -0.034567	    0.032434	   -0.002133	    0.029814	    0.058196	    0.088010	   -0.047984	   -0.020082	   -0.068066	   -0.019449	    0.007913	   -0.011536	   -0.010104	    0.058264	    0.048160	   -0.003765	   -0.039535	   -0.043300	   -0.041377	   -0.045104	   -0.086481	   -0.018699	   -0.048454	   -0.067153	    0.020073	    0.018282	    0.038356	   -0.020022	    0.020298	    0.000276	    0.013589	    0.029509	    0.043098	   -0.009517	    0.029301	    0.019784	   -0.040837	    0.014900	   -0.025937	   -0.016676	    0.029293	    0.012617	   -0.049201	    0.085625	    0.036425	   -0.000440	   -0.020085	   -0.020525	   -0.001778	   -0.013702	   -0.015480
     5.700	0	0	    0	   -0.008557	    0.010418	    0.001861	   -0.023176	    0.036815	    0.013640	   -0.042448	    0.004588	   -0.037859	   -0.010615	    0.001093	   -0.009522	   -0.034288	    0.022143	   -0.012145	   -0.026060	    0.047099	    0.021039	    0.047469	    0.014721	    0.062190	   -0.044342	   -0.011418	   -0.055760	   -0.010844	    0.021417	    0.010573	   -0.042461	    0.031872	   -0.010589	   -0.013521	   -0.002081	   -0.015602	   -0.052793	   -0.031004	   -0.083797	   -0.015817	    0.071168	    0.055351	    0.010279	    0.035119	    0.045398	   -0.019733	    0.021607	    0.001875	    0.016790	    0.024482	    0.041272	   -0.027717	    0.013821	   -0.013897	   -0.019624	    0.000715	   -0.018909	    0.017541	   -0.008409	    0.009131	   -0.044362	    0.004084	   -0.040278	    0.007212	    0.017773	    0.024985	    0.004390	   -0.003550	    0.000839
     5.775	0	0	    0	   -0.002190	    0.015335	    0.013146	   -0.029213	    0.043565	    0.014352	   -0.037613	    0.016001	   -0.021612	    0.002630	    0.016575	    0.019205	   -0.052505	    0.034298	   -0.018208	   -0.045994	    0.058640	    0.012646	    0.054228	    0.050555	    0.104784	   -0.048055	   -0.012375	   -0.060429	   -0.037835	    0.004290	   -0.033545	   -0.198599	   -0.008485	   -0.207084	   -0.072739	   -0.061505	   -0.134244	   -0.097339	   -0.025475	   -0.122814	   -0.091820	    0.046750	   -0.045070	   -0.022080	    0.020644	   -0.001436	   -0.019466	    0.026378	    0.006912	    0.003483	    0.016916	    0.020398	   -0.016890	    0.015712	   -0.001178	    0.133924	    0.064125	    0.198049	    0.197032	    0.060650	    0.257682	    0.019771	    0.014297	    0.034068	   -0.017489	    0.027430	    0.009941	   -0.004609	   -0.010917	   -0.015527
     5.850	0	0	    0	    0.054894	    0.039510	    0.094404	   -0.052258	    0.040191	   -0.012067	   -0.080382	    0.023410	   -0.056973	   -0.016545	    0.053061	    0.036516	   -0.176511	    0.051422	   -0.125089	   -0.169069	    0.103381	   -0.065688	    0.086729	    0.076466	    0.163195	   -0.056843	   -0.019074	   -0.075917	    0.004542	   -0.008665	   -0.004123	   -0.256640	   -0.139659	   -0.396299	   -0.082483	   -0.106688	   -0.189172	   -0.164119	   -0.092735	   -0.256854	   -0.204926	   -0.029795	   -0.234722	   -0.019724	   -0.007092	   -0.026816	   -0.010584	    0.027928	    0.017343	    0.000708	    0.015826	    0.016533	   -0.032253	    0.027288	   -0.004965	    0.143896	    0.161881	    0.305777	    0.303710	    0.225651	    0.529360	    0.081192	    0.089702	    0.170894	   -0.039479	   -0.008908	   -0.048388	   -0.002941	   -0.012621	   -0.015563
     5.925	0	0	    0	    0.057999	    0.084607	    0.142606	   -0.058116	    0.041121	   -0.016995	   -0.084167	    0.068226	   -0.015941	   -0.012623	    0.113600	    0.100977	   -0.300690	   -0.053373	   -0.354063	   -0.222750	    0.035926	   -0.186824	    0.093575	    0.106659	    0.200234	   -0.054449	   -0.023243	   -0.077692	    0.003846	    0.003191	    0.007037	   -0.261641	   -0.137129	   -0.398770	   -0.096616	   -0.085021	   -0.181638	   -0.204056	   -0.118584	   -0.322640	   -0.250622	   -0.108619	   -0.359242	   -0.016810	   -0.003754	   -0.020564	   -0.007267	    0.032101	    0.024834	   -0.004102	    0.014466	    0.010364	   -0.001169	    0.030194	    0.029025	    0.181027	    0.182266	    0.363293	    0.332347	    0.283966	    0.616312	    0.088640	    0.131572	    0.220212	   -0.042454	   -0.012958	   -0.055412	    0.004787	   -0.011875	   -0.007088
     6.000	0	0	    0	    0.066463	    0.099631	    0.166094	   -0.070579	    0.045715	   -0.024864	   -0.114276	    0.102430	   -0.011846	   -0.031766	    0.146405	    0.114639	   -0.268889	   -0.206351	   -0.475240	   -0.286642	   -0.016651	   -0.303293	    0.104464	    0.118377	    0.222841	   -0.054408	   -0.018699	   -0.073107	   -0.000005	    0.004953	    0.004949	   -0.279167	   -0.151733	   -0.430900	   -0.114712	   -0.082916	   -0.197629	   -0.234670	   -0.145948	   -0.380617	   -0.245117	   -0.263766	   -0.508883	   -0.018995	   -0.002087	   -0.021082	   -0.003719	    0.031707	    0.027988	    0.002557	    0.023690	    0.026247	    0.009496	    0.039921	    0.049417	    0.199654	    0.222287	    0.421940	    0.338380	    0.317360	    0.655741	    0.092549	    0.147773	    0.240322	   -0.052323	   -0.015545	   -0.067868	    0.008798	   -0.010531	   -0.001733
     6.075	0	0	    0	    0.069594	    0.111285	    0.180880	   -0.079422	    0.044335	   -0.035087	   -0.122102	    0.101499	   -0.020603	   -0.060700	    0.159007	    0.098306	   -0.270517	   -0.246968	   -0.517486	   -0.289807	   -0.072591	   -0.362397	    0.099733	    0.120720	    0.220453	   -0.051437	   -0.018243	   -0.069680	   -0.004189	    0.004079	   -0.000110	   -0.272890	   -0.158116	   -0.431006	   -0.097892	   -0.097484	   -0.195376	   -0.255236	   -0.155066	   -0.410301	   -0.269835	   -0.308576	   -0.578411	   -0.019083	   -0.008021	   -0.027104	   -0.005427	    0.031737	    0.026310	    0.001180	    0.031040	    0.032220	    0.006553	    0.058345	    0.064898	    0.170572	    0.243286	    0.413859	    0.291143	    0.330593	    0.621736	    0.082717	    0.159912	    0.242629	   -0.064515	   -0.018948	   -0.083464	    0.007789	   -0.009847	   -0.002058
     6.150	0	0	    0	    0.046775	    0.106605	    0.153379	   -0.071969	    0.035564	   -0.036405	   -0.069510	    0.073362	    0.003853	    0.001255	    0.135218	    0.136473	   -0.257560	   -0.207187	   -0.464747	   -0.132105	   -0.031216	   -0.163321	    0.072689	    0.103890	    0.176579	   -0.055189	   -0.018715	   -0.073904	   -0.033282	   -0.004783	   -0.038066	   -0.172519	   -0.141314	   -0.313833	   -0.050929	   -0.075896	   -0.126825	   -0.210300	   -0.168074	   -0.378374	   -0.227486	   -0.184444	   -0.411929	   -0.026636	   -0.016192	   -0.042828	    0.010213	    0.023873	    0.034087	    0.007181	    0.023611	    0.030793	   -0.010605	    0.056826	    0.046221	    0.068764	    0.198082	    0.266847	    0.120594	    0.241034	    0.361628	    0.038799	    0.153884	    0.192683	   -0.063221	   -0.023525	   -0.086747	    0.018286	   -0.010228	    0.008058
     6.225	0	0	    0	    0.004180	    0.062861	    0.067041	   -0.072423	    0.029784	   -0.042639	   -0.070935	    0.010086	   -0.060849	    0.006323	    0.077699	    0.084022	   -0.121452	   -0.011588	   -0.133040	   -0.096965	    0.034342	   -0.062623	    0.068028	    0.077686	    0.145715	   -0.039407	   -0.016624	   -0.056031	   -0.045594	   -0.020964	   -0.066558	   -0.080491	   -0.014536	   -0.095027	   -0.055007	   -0.049629	   -0.104637	   -0.109121	   -0.090413	   -0.199534	   -0.167060	   -0.067302	   -0.234362	   -0.012282	   -0.002716	   -0.014999	    0.025401	    0.054195	    0.079595	    0.043234	    0.040619	    0.083854	   -0.025491	    0.034607	    0.009116	    0.030031	    0.099210	    0.129241	    0.082738	    0.102437	    0.185175	   -0.007085	    0.108040	    0.100954	   -0.057700	   -0.011506	   -0.069206	    0.046699	    0.009857	    0.056556
     6.300	0	0	    0	   -0.003441	    0.038817	    0.035376	   -0.072297	    0.028872	   -0.043425	   -0.069554	    0.005585	   -0.063968	    0.013877	    0.044177	    0.058054	   -0.114218	    0.007771	   -0.106447	   -0.099334	    0.040237	   -0.059096	    0.063744	    0.087442	    0.151186	   -0.023789	    0.017227	   -0.006562	   -0.046221	   -0.017469	   -0.063689	   -0.110009	   -0.011179	   -0.121189	   -0.053008	   -0.056198	   -0.109206	   -0.103950	   -0.054560	   -0.158510	   -0.186778	   -0.065985	   -0.252763	   -0.016137	    0.010559	   -0.005578	    0.036682	    0.091237	    0.127919	    0.054077	    0.064676	    0.118753	   -0.014355	    0.030694	    0.016339	    0.040526	    0.106142	    0.146668	    0.098388	    0.116364	    0.214752	   -0.000035	    0.093623	    0.093589	   -0.065842	   -0.004874	   -0.070716	    0.055758	    0.026799	    0.082558
     6.375	0	0	    0	   -0.007678	    0.035761	    0.028083	   -0.067457	    0.030229	   -0.037228	   -0.067828	    0.005062	   -0.062766	    0.013168	    0.041406	    0.054573	   -0.105132	    0.008451	   -0.096681	   -0.081103	    0.035589	   -0.045514	    0.063102	    0.087002	    0.150104	   -0.023733	    0.041000	    0.017266	   -0.042621	   -0.016714	   -0.059335	   -0.039693	   -0.028022	   -0.067714	   -0.044320	   -0.052554	   -0.096874	   -0.094113	   -0.057028	   -0.151142	   -0.170543	   -0.079692	   -0.250236	   -0.004948	    0.015599	    0.010651	    0.027318	    0.103048	    0.130365	    0.054298	    0.069272	    0.123571	   -0.007771	    0.033598	    0.025827	   -0.006340	    0.101841	    0.095501	    0.039598	    0.108834	    0.148432	   -0.001583	    0.102415	    0.100832	   -0.061000	   -0.010236	   -0.071236	    0.049868	    0.030436	    0.080304
     6.450	0	0	    0	   -0.019117	    0.023600	    0.004483	   -0.063573	    0.023267	   -0.040306	   -0.061511	    0.000497	   -0.061015	   -0.002342	    0.019456	    0.017114	   -0.056274	    0.012912	   -0.043361	   -0.049893	    0.039355	   -0.010538	    0.051055	    0.074473	    0.125528	   -0.032592	    0.046702	    0.014110	   -0.027583	    0.003241	   -0.024342	    0.015916	    0.062219	    0.078135	   -0.030426	   -0.037749	   -0.068175	   -0.045754	   -0.038381	   -0.084135	   -0.069813	   -0.014560	   -0.084373	    0.006691	    0.037828	    0.044519	    0.008589	    0.082348	    0.090937	    0.048565	    0.065448	    0.114013	   -0.018840	    0.021290	    0.002450	   -0.024786	    0.024927	    0.000141	    0.020348	    0.034397	    0.054745	   -0.027402	    0.074656	    0.047254	   -0.035569	    0.002377	   -0.033192	    0.032364	    0.015797	    0.048161
     6.525	0	0	    0	   -0.014907	    0.015427	    0.000520	   -0.057206	    0.026016	   -0.031191	   -0.044658	    0.005366	   -0.039292	    0.005946	    0.012494	    0.018440	   -0.064887	    0.026955	   -0.037932	   -0.055015	    0.045878	   -0.009137	    0.066947	    0.068742	    0.135689	   -0.037537	    0.032363	   -0.005174	   -0.039132	    0.000880	   -0.038253	   -0.070927	    0.049575	   -0.021352	   -0.056421	   -0.058953	   -0.115374	   -0.066764	   -0.013897	   -0.080661	   -0.119644	    0.017638	   -0.102006	   -0.000111	    0.025567	    0.025456	    0.013143	    0.072436	    0.085579	    0.044920	    0.050207	    0.095128	    0.004854	    0.015686	    0.020540	    0.085567	    0.054406	    0.139973	    0.141391	    0.070680	    0.212071	    0.024500	    0.054238	    0.078738	   -0.035066	    0.011004	   -0.024062	    0.034391	    0.009779	    0.044170
     6.600	0	0	    0	    0.011381	    0.021069	    0.032450	   -0.056913	    0.034978	   -0.021935	   -0.039040	    0.024380	   -0.014659	    0.015653	    0.020065	    0.035719	   -0.096813	    0.018507	   -0.078307	   -0.054890	    0.053917	   -0.000973	    0.076173	    0.082257	    0.158430	   -0.034856	    0.028262	   -0.006593	   -0.026217	   -0.016399	   -0.042616	   -0.132864	   -0.030846	   -0.163710	   -0.037885	   -0.077016	   -0.114901	   -0.123863	   -0.061659	   -0.185522	   -0.146858	   -0.039281	   -0.186140	   -0.002767	    0.016688	    0.013921	    0.018717	    0.077896	    0.096613	    0.047447	    0.051394	    0.098841	    0.005833	    0.038953	    0.044786	    0.100450	    0.141012	    0.241461	    0.162511	    0.167088	    0.329600	    0.052096	    0.107174	    0.159270	   -0.038057	    0.003484	   -0.034573	    0.046373	    0.013910	    0.060283
     6.675	0	0	    0	    0.000341	    0.042836	    0.043177	   -0.054790	    0.032769	   -0.022021	   -0.050245	    0.025925	   -0.024319	    0.018175	    0.032134	    0.050310	   -0.085918	    0.023578	   -0.062340	   -0.056915	    0.054738	   -0.002177	    0.066516	    0.084958	    0.151475	   -0.026973	    0.034195	    0.007222	   -0.031439	   -0.010890	   -0.042329	   -0.034817	   -0.037155	   -0.071972	   -0.025347	   -0.055487	   -0.080834	   -0.089047	   -0.090567	   -0.179613	   -0.137250	   -0.049294	   -0.186544	    0.001359	    0.017502	    0.018861	    0.022430	    0.085645	    0.108075	    0.050273	    0.057501	    0.107774	    0.006653	    0.041365	    0.048018	    0.016649	    0.113061	    0.129710	    0.059379	    0.125135	    0.184515	    0.042130	    0.128861	    0.170990	   -0.044096	   -0.000767	   -0.044863	    0.046749	    0.021365	    0.068114
     6.750	0	0	    0	   -0.021950	    0.019523	   -0.002427	   -0.057431	    0.035767	   -0.021664	   -0.050797	    0.012413	   -0.038384	    0.010299	    0.023353	    0.033652	   -0.070769	    0.020473	   -0.050295	   -0.052827	    0.042318	   -0.010509	    0.048677	    0.077619	    0.126296	   -0.030604	    0.042614	    0.012009	   -0.029663	    0.003105	   -0.026558	    0.008641	    0.043197	    0.051838	   -0.023484	   -0.040457	   -0.063941	   -0.054346	   -0.038347	   -0.092693	   -0.103507	   -0.031693	   -0.135200	    0.000195	    0.025697	    0.025892	    0.008407	    0.085760	    0.094167	    0.046729	    0.058940	    0.105669	   -0.005199	    0.038622	    0.033423	   -0.010527	    0.053000	    0.042473	    0.032690	    0.060144	    0.092834	    0.011195	    0.107087	    0.118282	   -0.035662	    0.001865	   -0.033797	    0.031684	    0.016857	    0.048541
     6.825	0	0	    0	   -0.027462	    0.010060	   -0.017401	   -0.055846	    0.035620	   -0.020226	   -0.045714	    0.012821	   -0.032893	    0.007447	    0.011260	    0.018707	   -0.059338	    0.029950	   -0.029389	   -0.050837	    0.043845	   -0.006992	    0.046512	    0.065287	    0.111799	   -0.041161	    0.036885	   -0.004276	   -0.040565	    0.008031	   -0.032534	   -0.005728	    0.050921	    0.045193	   -0.023455	   -0.040284	   -0.063739	   -0.040210	   -0.018361	   -0.058571	   -0.107127	   -0.001324	   -0.108450	   -0.001159	    0.027245	    0.026086	    0.007359	    0.074724	    0.082083	    0.031995	    0.049572	    0.081566	   -0.000666	    0.032696	    0.032030	   -0.003499	    0.040750	    0.037251	    0.041403	    0.052553	    0.093955	    0.009019	    0.081758	    0.090778	   -0.033211	    0.012719	   -0.020492	    0.026115	    0.009275	    0.035390
     6.900	0	0	    0	   -0.027740	    0.007244	   -0.020497	   -0.057774	    0.038624	   -0.019151	   -0.049416	    0.018202	   -0.031215	    0.009108	    0.012749	    0.021857	   -0.058394	    0.030916	   -0.027479	   -0.047240	    0.042651	   -0.004589	    0.044663	    0.065304	    0.109967	   -0.039819	    0.032987	   -0.006832	   -0.040268	    0.005916	   -0.034352	    0.011248	    0.034981	    0.046229	   -0.016236	   -0.042950	   -0.059186	   -0.038181	   -0.016303	   -0.054484	   -0.101036	   -0.009720	   -0.110756	    0.002638	    0.030969	    0.033607	    0.014837	    0.078550	    0.093387	    0.035929	    0.044031	    0.079960	   -0.001539	    0.036470	    0.034932	   -0.059692	    0.055544	   -0.004147	   -0.002405	    0.060814	    0.058409	    0.004712	    0.088754	    0.093466	   -0.031578	    0.010455	   -0.021124	    0.038277	    0.008591	    0.046868
     6.975	0	0	    0	   -0.031277	    0.007663	   -0.023613	   -0.051276	    0.039100	   -0.012176	   -0.047194	    0.008712	   -0.038483	   -0.006096	    0.009175	    0.003079	   -0.038739	    0.035774	   -0.002964	   -0.046359	    0.048970	    0.002610	    0.034046	    0.062600	    0.096646	   -0.031631	    0.038692	    0.007061	   -0.021956	    0.017468	   -0.004488	   -0.021548	    0.060362	    0.038815	    0.010011	   -0.024237	   -0.014227	   -0.028370	    0.000082	   -0.028288	   -0.009604	    0.042131	    0.032527	    0.029645	    0.051998	    0.081643	    0.032525	    0.084380	    0.116905	    0.054536	    0.053710	    0.108245	   -0.041264	    0.027327	   -0.013937	   -0.061072	   -0.000815	   -0.061887	   -0.022545	    0.010177	   -0.012369	   -0.059323	    0.053704	   -0.005618	   -0.003946	    0.026996	    0.023050	    0.066356	    0.011794	    0.078149
     7.050	0	0	    0	   -0.029200	    0.009276	   -0.019924	   -0.054091	    0.045641	   -0.008451	   -0.051054	    0.017666	   -0.033388	   -0.007138	   -0.002950	   -0.010088	   -0.024297	    0.049968	    0.025671	   -0.049295	    0.049749	    0.000455	    0.035378	    0.059833	    0.095211	   -0.023681	    0.047059	    0.023378	   -0.026832	    0.036318	    0.009486	   -0.065192	    0.060445	   -0.004746	   -0.023930	    0.001678	   -0.022252	   -0.032599	    0.000210	   -0.032389	   -0.030046	    0.089248	    0.059202	    0.010674	    0.071292	    0.081966	    0.033169	    0.098701	    0.131870	    0.056427	    0.065841	    0.122268	   -0.049790	    0.004330	   -0.045460	   -0.027493	   -0.008560	   -0.036053	    0.017115	   -0.008358	    0.008757	   -0.046754	    0.009977	   -0.036776	   -0.017023	    0.032606	    0.015583	    0.053902	    0.042942	    0.096845
     7.125	0	0	    0	   -0.027770	    0.011373	   -0.016397	   -0.058417	    0.041476	   -0.016941	   -0.044180	    0.027891	   -0.016288	    0.001099	    0.014874	    0.015973	   -0.057267	    0.051391	   -0.005876	   -0.033898	    0.040074	    0.006177	    0.065108	    0.065867	    0.130975	   -0.031675	    0.050454	    0.018779	   -0.055040	    0.002571	   -0.052469	   -0.209284	   -0.019539	   -0.228823	   -0.067667	   -0.058419	   -0.126086	   -0.098122	   -0.017868	   -0.115990	   -0.138395	    0.031730	   -0.106665	   -0.004278	    0.035610	    0.031332	    0.036467	    0.105045	    0.141512	    0.047920	    0.060326	    0.108246	   -0.031464	    0.006386	   -0.025078	    0.129552	    0.088009	    0.217562	    0.208132	    0.089211	    0.297343	    0.017381	    0.037477	    0.054858	   -0.047109	    0.026636	   -0.020473	    0.062982	    0.032922	    0.095905
     7.200	0	0	    0	    0.028710	    0.043909	    0.072618	   -0.062528	    0.044958	   -0.017570	   -0.079931	    0.027965	   -0.051966	    0.000264	    0.048806	    0.049070	   -0.169390	    0.061051	   -0.108338	   -0.098705	    0.086548	   -0.012156	    0.093490	    0.100729	    0.194219	   -0.021303	    0.039911	    0.018607	   -0.009036	   -0.001214	   -0.010250	   -0.264292	   -0.125234	   -0.389527	   -0.081459	   -0.095233	   -0.176692	   -0.152087	   -0.082276	   -0.234363	   -0.195596	   -0.052859	   -0.248455	    0.006428	    0.023988	    0.030416	    0.041819	    0.109374	    0.151193	    0.059673	    0.069281	    0.128954	   -0.032758	    0.031914	   -0.000845	    0.136538	    0.168988	    0.305526	    0.277679	    0.230533	    0.508212	    0.077982	    0.122404	    0.200386	   -0.054100	   -0.006118	   -0.060218	    0.073711	    0.033779	    0.107490
     7.275	0	0	    0	    0.036270	    0.074204	    0.110474	   -0.065619	    0.047433	   -0.018186	   -0.071637	    0.034765	   -0.036872	   -0.009273	    0.068301	    0.059029	   -0.230914	   -0.011258	   -0.242172	   -0.128126	    0.065461	   -0.062665	    0.114444	    0.105393	    0.219837	   -0.016263	    0.048440	    0.032177	   -0.009454	    0.001652	   -0.007802	   -0.262582	   -0.130138	   -0.392719	   -0.073124	   -0.093022	   -0.166146	   -0.177879	   -0.115681	   -0.293560	   -0.225746	   -0.088878	   -0.314624	    0.013744	    0.017916	    0.031660	    0.044096	    0.107596	    0.151692	    0.058475	    0.073087	    0.131562	   -0.013458	    0.036738	    0.023280	    0.155058	    0.184708	    0.339765	    0.301279	    0.266073	    0.567352	    0.080959	    0.154188	    0.235148	   -0.053879	   -0.009703	   -0.063582	    0.071137	    0.039282	    0.110419
     7.350	0	0	    0	    0.044411	    0.084254	    0.128666	   -0.069173	    0.049674	   -0.019498	   -0.069570	    0.052254	   -0.017317	   -0.005029	    0.090827	    0.085798	   -0.274244	   -0.052706	   -0.326951	   -0.148514	    0.035295	   -0.113220	    0.112820	    0.115761	    0.228581	   -0.014355	    0.047970	    0.033615	   -0.010175	    0.002661	   -0.007514	   -0.260530	   -0.135076	   -0.395606	   -0.044077	   -0.090989	   -0.135066	   -0.193419	   -0.131245	   -0.324664	   -0.253621	   -0.118405	   -0.372026	    0.007201	    0.017155	    0.024356	    0.045337	    0.106234	    0.151570	    0.059949	    0.077011	    0.136960	   -0.013894	    0.044836	    0.030942	    0.143351	    0.206117	    0.349469	    0.264754	    0.285109	    0.549863	    0.074169	    0.163896	    0.238065	   -0.064376	   -0.011299	   -0.075675	    0.076547	    0.032966	    0.109513
     7.425	0	0	    0	    0.021029	    0.085575	    0.106604	   -0.044579	    0.042526	   -0.002052	   -0.064374	    0.035777	   -0.028598	    0.019005	    0.086680	    0.105685	   -0.191501	   -0.078050	   -0.269551	   -0.065743	    0.038389	   -0.027354	    0.078480	    0.112564	    0.191045	   -0.019737	    0.046751	    0.027015	   -0.025101	    0.000097	   -0.025004	   -0.102306	   -0.122226	   -0.224532	   -0.018143	   -0.054418	   -0.072561	   -0.145417	   -0.141802	   -0.287219	   -0.191466	   -0.125566	   -0.317033	   -0.002479	    0.015345	    0.012866	    0.005615	    0.115431	    0.121046	    0.052113	    0.077772	    0.129885	   -0.009165	    0.043472	    0.034307	    0.041356	    0.166700	    0.208056	    0.086414	    0.209475	    0.295889	    0.049418	    0.162499	    0.211917	   -0.067926	   -0.018668	   -0.086594	    0.024868	    0.040782	    0.065650
     7.500	0	0	    0	   -0.035647	    0.026024	   -0.009623	   -0.053401	    0.045041	   -0.008361	   -0.058566	    0.006750	   -0.051816	   -0.002505	    0.043768	    0.041263	   -0.068273	    0.019991	   -0.048282	   -0.062123	    0.047611	   -0.014512	    0.036067	    0.075063	    0.111130	   -0.066129	    0.022516	   -0.043613	   -0.040162	   -0.013490	   -0.053652	    0.007833	    0.022970	    0.030803	    0.000416	   -0.031811	   -0.031396	   -0.052963	   -0.056656	   -0.109619	   -0.074882	   -0.069500	   -0.144382	    0.009062	    0.024723	    0.033785	   -0.009239	    0.056900	    0.047661	    0.006663	    0.039688	    0.046352	   -0.020703	    0.029309	    0.008606	   -0.055430	    0.061666	    0.006237	   -0.008333	    0.056575	    0.048242	   -0.014141	    0.111099	    0.096958	   -0.031787	   -0.014290	   -0.046077	    0.013515	    0.000790	    0.014305
     7.575	0	0	    0	   -0.033106	    0.003844	   -0.029261	   -0.051354	    0.046854	   -0.004500	   -0.047090	    0.014109	   -0.032980	   -0.006036	    0.006560	    0.000524	   -0.038695	    0.035769	   -0.002927	   -0.051719	    0.052638	    0.000918	    0.022510	    0.064038	    0.086548	   -0.052070	    0.006945	   -0.045125	   -0.032624	    0.010131	   -0.022493	   -0.029581	    0.056108	    0.026526	    0.016312	    0.000599	    0.016910	   -0.044698	   -0.006009	   -0.050707	   -0.015618	    0.054065	    0.038446	    0.023343	    0.062201	    0.085544	    0.014921	    0.056860	    0.071781	    0.029223	    0.026801	    0.056024	   -0.044439	    0.024188	   -0.020251	   -0.042302	    0.017650	   -0.024651	   -0.015493	    0.011965	   -0.003528	   -0.054780	    0.039921	   -0.014859	   -0.011025	    0.026659	    0.015634	    0.048422	    0.010110	    0.058531
     7.650	0	0	    0	   -0.033608	    0.008001	   -0.025606	   -0.055658	    0.048930	   -0.006728	   -0.050815	    0.019332	   -0.031482	    0.000259	   -0.000480	   -0.000222	   -0.025506	    0.055377	    0.029871	   -0.048147	    0.054802	    0.006655	    0.036228	    0.062134	    0.098362	   -0.027667	    0.025645	   -0.002022	   -0.034114	    0.030632	   -0.003481	   -0.078451	    0.057541	   -0.020910	   -0.010995	    0.003405	   -0.007590	   -0.029696	   -0.000876	   -0.030572	   -0.043884	    0.089078	    0.045194	    0.009036	    0.072944	    0.081980	    0.033735	    0.091706	    0.125442	    0.048421	    0.052719	    0.101140	   -0.049531	    0.010682	   -0.038849	   -0.006632	    0.009678	    0.003046	    0.027085	    0.001204	    0.028289	   -0.028420	    0.017678	   -0.010741	   -0.022228	    0.037314	    0.015087	    0.054022	    0.035400	    0.089422
     7.725	0	0	    0	   -0.038271	    0.005376	   -0.032894	   -0.058192	    0.046141	   -0.012051	   -0.045423	    0.026437	   -0.018987	    0.005530	    0.014488	    0.020018	   -0.041438	    0.045375	    0.003937	   -0.053910	    0.049726	   -0.004184	    0.042832	    0.073557	    0.116389	   -0.031350	    0.044408	    0.013057	   -0.053255	    0.003824	   -0.049431	   -0.112682	   -0.016588	   -0.129270	   -0.007915	   -0.026212	   -0.034127	   -0.066583	   -0.020528	   -0.087111	   -0.099768	    0.026187	   -0.073581	    0.003522	    0.050703	    0.054225	    0.032487	    0.105263	    0.137750	    0.044328	    0.058921	    0.103249	   -0.039704	    0.014946	   -0.024758	    0.016899	    0.070943	    0.087841	    0.047636	    0.066620	    0.114257	    0.003912	    0.053155	    0.057067	   -0.036566	    0.024483	   -0.012083	    0.057459	    0.035065	    0.092524
     7.800	0	0	    0	   -0.041427	    0.005769	   -0.035658	   -0.062994	    0.044655	   -0.018339	   -0.042324	    0.031177	   -0.011146	    0.005894	    0.016109	    0.022003	   -0.040590	    0.045443	    0.004853	   -0.057572	    0.049000	   -0.008573	    0.033704	    0.073266	    0.106970	   -0.035813	    0.046229	    0.010417	   -0.057166	    0.003122	   -0.054044	   -0.092637	   -0.007975	   -0.100611	   -0.010419	   -0.013375	   -0.023793	   -0.048400	   -0.034406	   -0.082806	   -0.088830	    0.003779	   -0.085051	   -0.003825	    0.051387	    0.047562	    0.011795	    0.099064	    0.110858	    0.030822	    0.060332	    0.091154	   -0.037407	    0.020762	   -0.016645	    0.008616	    0.058155	    0.066771	    0.040078	    0.048253	    0.088331	   -0.002454	    0.074456	    0.072002	   -0.041002	    0.013060	   -0.027943	    0.035755	    0.032523	    0.068278
     7.875	0	0	    0	   -0.032152	    0.000552	   -0.031600	   -0.044360	    0.046364	    0.002004	   -0.033208	    0.037492	    0.004284	    0.007447	    0.017874	    0.025321	   -0.050857	    0.051641	    0.000785	   -0.044030	    0.048840	    0.004810	    0.058735	    0.071855	    0.130589	   -0.047557	    0.032684	   -0.014874	   -0.051008	   -0.005871	   -0.056879	   -0.182709	   -0.006245	   -0.188954	   -0.044404	   -0.029594	   -0.073998	   -0.083151	   -0.012029	   -0.095180	   -0.123612	    0.002639	   -0.120973	   -0.004779	    0.039313	    0.034534	    0.025378	    0.085510	    0.110887	    0.030874	    0.042621	    0.073494	   -0.031048	    0.025413	   -0.005635	    0.116065	    0.088018	    0.204083	    0.180597	    0.085201	    0.265799	    0.025573	    0.071848	    0.097421	   -0.048549	    0.008172	   -0.040377	    0.054758	    0.023269	    0.078027
     7.950	0	0	    0	    0.018155	    0.027411	    0.045566	   -0.052190	    0.050509	   -0.001681	   -0.064323	    0.038199	   -0.026123	   -0.003547	    0.039047	    0.035501	   -0.149353	    0.054820	   -0.094533	   -0.079184	    0.081322	    0.002138	    0.082875	    0.095515	    0.178390	   -0.048413	    0.026680	   -0.021733	   -0.011595	   -0.001237	   -0.012832	   -0.236239	   -0.106916	   -0.343155	   -0.042305	   -0.073914	   -0.116219	   -0.156520	   -0.085930	   -0.242450	   -0.166548	   -0.048445	   -0.214992	   -0.001638	    0.027307	    0.025669	    0.031875	    0.104656	    0.136531	    0.048439	    0.054010	    0.102449	   -0.033231	    0.028619	   -0.004612	    0.120590	    0.166600	    0.287190	    0.212268	    0.210141	    0.422409	    0.074134	    0.121150	    0.195284	   -0.045799	   -0.014372	   -0.060172	    0.066807	    0.031279	    0.098086
     8.025	0	0	    0	    0.004161	    0.051877	    0.056037	   -0.036950	    0.048950	    0.012000	   -0.041372	    0.036399	   -0.004973	   -0.000651	    0.044979	    0.044329	   -0.128853	   -0.004111	   -0.132964	   -0.042182	    0.073721	    0.031539	    0.062184	    0.101383	    0.163567	   -0.044651	    0.031297	   -0.013355	   -0.022357	    0.005722	   -0.016635	   -0.126188	   -0.107475	   -0.233663	   -0.017633	   -0.045894	   -0.063527	   -0.130522	   -0.121687	   -0.252210	   -0.132563	   -0.064904	   -0.197466	   -0.010958	    0.026843	    0.015885	    0.033205	    0.105592	    0.138797	    0.041466	    0.062955	    0.104421	   -0.018764	    0.028608	    0.009843	    0.048007	    0.137286	    0.185293	    0.090919	    0.159503	    0.250422	    0.058441	    0.138939	    0.197380	   -0.053266	   -0.010343	   -0.063609	    0.059309	    0.035038	    0.094347
     8.100	0	0	    0	   -0.022204	    0.026874	    0.004670	   -0.048096	    0.052331	    0.004235	   -0.043124	    0.032369	   -0.010755	    0.014810	    0.030921	    0.045731	   -0.058112	    0.040296	   -0.017815	   -0.047887	    0.060943	    0.013055	    0.044560	    0.081147	    0.125707	   -0.034225	    0.035873	    0.001647	   -0.036159	    0.006656	   -0.029504	   -0.058131	   -0.017399	   -0.075530	   -0.009961	   -0.031300	   -0.041260	   -0.056110	   -0.069459	   -0.125568	   -0.106515	   -0.044123	   -0.150638	    0.002361	    0.031603	    0.033963	    0.031388	    0.104245	    0.135633	    0.035140	    0.053508	    0.088648	   -0.017091	    0.036854	    0.019763	    0.004004	    0.083418	    0.087422	    0.021446	    0.076320	    0.097766	    0.012146	    0.118116	    0.130262	   -0.042874	   -0.011478	   -0.054352	    0.055164	    0.029888	    0.085052
     8.175	0	0	    0	   -0.028623	    0.011649	   -0.016974	   -0.046799	    0.048006	    0.001207	   -0.040893	    0.025702	   -0.015191	    0.010972	    0.016931	    0.027903	   -0.027490	    0.036127	    0.008637	   -0.042780	    0.056227	    0.013447	    0.040028	    0.071124	    0.111152	   -0.025385	    0.051379	    0.025994	   -0.029376	    0.020015	   -0.009361	   -0.033746	    0.029083	   -0.004663	    0.010382	   -0.012495	   -0.002113	   -0.011077	   -0.013639	   -0.024716	   -0.043131	    0.016161	   -0.026969	    0.008514	    0.056208	    0.064722	    0.034053	    0.109338	    0.143391	    0.046638	    0.055194	    0.101832	   -0.021246	    0.030310	    0.009063	   -0.035218	    0.045488	    0.010270	   -0.003369	    0.031507	    0.028139	   -0.013502	    0.076078	    0.062575	   -0.009580	    0.013989	    0.004410	    0.056349	    0.037088	    0.093437
     8.250	0	0	    0	   -0.027552	    0.015034	   -0.012517	   -0.044682	    0.050064	    0.005382	   -0.037616	    0.027968	   -0.009648	    0.006495	    0.017600	    0.024095	   -0.022662	    0.053335	    0.030673	   -0.042540	    0.058344	    0.015804	    0.035010	    0.071639	    0.106649	   -0.013653	    0.059001	    0.045348	   -0.013037	    0.028914	    0.015877	   -0.023858	    0.050611	    0.026754	    0.034310	    0.007923	    0.042232	   -0.018854	    0.013721	   -0.005133	   -0.022990	    0.059887	    0.036896	    0.024587	    0.069152	    0.093739	    0.053239	    0.113520	    0.166759	    0.059450	    0.063295	    0.122745	   -0.038884	    0.030278	   -0.008606	   -0.050578	    0.014413	   -0.036166	   -0.012106	    0.010416	   -0.001690	   -0.041453	    0.035935	   -0.005518	   -0.009205	    0.038001	    0.028797	    0.086083	    0.050278	    0.136361
     8.325	0	0	    0	   -0.028572	    0.015585	   -0.012988	   -0.042857	    0.050236	    0.007379	   -0.035216	    0.030467	   -0.004749	   -0.002024	    0.011112	    0.009089	   -0.010956	    0.061357	    0.050401	   -0.041770	    0.055879	    0.014109	    0.031164	    0.066843	    0.098008	   -0.007186	    0.066616	    0.059430	   -0.009015	    0.043184	    0.034169	   -0.031981	    0.052741	    0.020760	    0.031218	    0.020469	    0.051687	   -0.029549	    0.015845	   -0.013704	   -0.009480	    0.089108	    0.079628	    0.037981	    0.081990	    0.119970	    0.055153	    0.121631	    0.176783	    0.064040	    0.074926	    0.138966	   -0.062364	    0.010136	   -0.052227	   -0.056575	    0.010954	   -0.045622	   -0.014833	    0.004609	   -0.010223	   -0.051592	    0.018934	   -0.032658	   -0.020761	    0.036380	    0.015620	    0.092870	    0.070156	    0.163026
     8.400	0	0	    0	   -0.027611	    0.013919	   -0.013692	   -0.043127	    0.051349	    0.008222	   -0.032162	    0.032450	    0.000289	   -0.005251	    0.004782	   -0.000469	   -0.006466	    0.068165	    0.061699	   -0.041356	    0.052438	    0.011082	    0.027129	    0.060244	    0.087373	   -0.013217	    0.068686	    0.055469	   -0.018333	    0.041499	    0.023165	   -0.039569	    0.053952	    0.014383	    0.024116	    0.022218	    0.046335	   -0.034059	    0.006389	   -0.027670	   -0.017419	    0.096605	    0.079185	    0.030761	    0.090258	    0.121019	    0.035782	    0.122961	    0.158743	    0.049120	    0.070147	    0.119267	   -0.068011	   -0.003382	   -0.071393	   -0.057140	    0.009456	   -0.047683	   -0.011907	    0.004941	   -0.006967	   -0.049422	    0.013311	   -0.036111	   -0.041585	    0.031145	   -0.010440	    0.083009	    0.069393	    0.152402
     8.475	0	0	    0	   -0.029897	    0.013899	   -0.015999	   -0.057554	    0.053913	   -0.003641	   -0.033507	    0.032478	   -0.001029	    0.008393	    0.003534	    0.011927	   -0.017840	    0.071436	    0.053596	   -0.043020	    0.051084	    0.008064	    0.038749	    0.063480	    0.102229	   -0.023917	    0.063903	    0.039986	   -0.045502	    0.036693	   -0.008809	   -0.151023	    0.050252	   -0.100771	   -0.046067	   -0.000090	   -0.046157	   -0.050660	    0.011143	   -0.039517	   -0.061274	    0.093633	    0.032359	    0.010006	    0.078608	    0.088614	    0.053263	    0.117274	    0.170537	    0.044680	    0.057425	    0.102105	   -0.061195	   -0.011948	   -0.073143	    0.065830	    0.018979	    0.084809	    0.111428	    0.015125	    0.126553	   -0.019654	    0.015789	   -0.003865	   -0.051484	    0.019719	   -0.031766	    0.083969	    0.064726	    0.148695
     8.550	0	0	    0	   -0.002158	    0.004640	    0.002482	   -0.061307	    0.042659	   -0.018649	   -0.079682	    0.048460	   -0.031222	    0.010793	    0.029889	    0.040682	   -0.056094	    0.066290	    0.010196	   -0.030369	    0.079612	    0.049243	    0.083564	    0.071805	    0.155369	   -0.007898	    0.050417	    0.042519	   -0.032471	   -0.027035	   -0.059506	   -0.298133	   -0.082063	   -0.380196	   -0.092052	   -0.065324	   -0.157376	   -0.118849	   -0.049033	   -0.167883	   -0.152010	    0.001378	   -0.150632	    0.002037	    0.033920	    0.035957	    0.071201	    0.122502	    0.193703	    0.048762	    0.060250	    0.109011	   -0.041259	    0.023268	   -0.017991	    0.146411	    0.169688	    0.316100	    0.276011	    0.183812	    0.459823	    0.068998	    0.083419	    0.152417	   -0.063891	    0.015200	   -0.048691	    0.089781	    0.066509	    0.156290
     8.625	0	0	    0	    0.027130	    0.063045	    0.090176	   -0.061751	    0.046723	   -0.015028	   -0.076686	    0.047942	   -0.028744	    0.014207	    0.066980	    0.081187	   -0.201560	    0.046947	   -0.154613	   -0.075569	    0.074781	   -0.000788	    0.092709	    0.105577	    0.198286	   -0.006754	    0.049256	    0.042502	   -0.018201	   -0.002981	   -0.021182	   -0.278031	   -0.156805	   -0.434836	   -0.027920	   -0.080558	   -0.108478	   -0.148861	   -0.085814	   -0.234675	   -0.213973	   -0.076376	   -0.290348	    0.004757	    0.025415	    0.030172	    0.059386	    0.131097	    0.190483	    0.046125	    0.073692	    0.119818	   -0.033613	    0.035994	    0.002381	    0.108474	    0.193712	    0.302185	    0.233972	    0.278031	    0.512003	    0.085006	    0.162923	    0.247928	   -0.077895	   -0.011971	   -0.089866	    0.079616	    0.070802	    0.150418
     8.700	0	0	    0	    0.002331	    0.070100	    0.072431	   -0.048816	    0.047379	   -0.001436	   -0.054414	    0.039287	   -0.015127	    0.024059	    0.085711	    0.109771	   -0.120433	   -0.012416	   -0.132849	   -0.039290	    0.075040	    0.035750	    0.068151	    0.100033	    0.168184	   -0.017630	    0.055755	    0.038125	   -0.039038	    0.001795	   -0.037243	   -0.133577	   -0.112335	   -0.245912	   -0.008083	   -0.030880	   -0.038963	   -0.103725	   -0.102208	   -0.205933	   -0.161312	   -0.089813	   -0.251125	   -0.009082	    0.024980	    0.015898	    0.053679	    0.130901	    0.184580	    0.033718	    0.063902	    0.097620	   -0.021223	    0.048629	    0.027406	    0.036450	    0.138389	    0.174838	    0.093990	    0.180750	    0.274740	    0.060174	    0.170002	    0.230176	   -0.077982	   -0.019381	   -0.097363	    0.079576	    0.060937	    0.140513
     8.775	0	0	    0	   -0.034114	    0.025083	   -0.009031	   -0.064054	    0.037245	   -0.026810	   -0.062466	    0.015655	   -0.046811	    0.016371	    0.064847	    0.081217	   -0.040519	    0.058436	    0.017917	   -0.048342	    0.053504	    0.005162	    0.053144	    0.085674	    0.138818	   -0.005523	    0.053184	    0.047661	   -0.036866	   -0.007845	   -0.044712	   -0.067789	   -0.015460	   -0.083249	    0.009799	   -0.018535	   -0.008735	   -0.043072	   -0.035242	   -0.078314	   -0.110447	   -0.062081	   -0.172528	    0.009574	    0.027074	    0.036648	    0.069991	    0.127751	    0.197742	    0.046574	    0.060868	    0.107443	   -0.030294	    0.033772	    0.003478	   -0.016541	    0.075993	    0.059452	    0.020869	    0.068962	    0.089831	    0.007333	    0.135549	    0.142882	   -0.059176	   -0.022710	   -0.081887	    0.085374	    0.068555	    0.153929
     8.850	0	0	    0	   -0.032360	    0.011087	   -0.021273	   -0.059464	    0.036120	   -0.023344	   -0.050987	    0.016372	   -0.034614	    0.016422	    0.030107	    0.046529	   -0.027506	    0.046597	    0.019091	   -0.039097	    0.043799	    0.004701	    0.053307	    0.079711	    0.133019	    0.014496	    0.059209	    0.073705	   -0.026897	    0.008369	   -0.018528	   -0.039607	    0.023052	   -0.016556	    0.022576	    0.007859	    0.030436	   -0.027605	   -0.006578	   -0.034183	   -0.075280	   -0.015056	   -0.090336	    0.018605	    0.033784	    0.052389	    0.082660	    0.127152	    0.209812	    0.061524	    0.071437	    0.132962	   -0.029055	    0.030289	    0.001234	   -0.040957	    0.047419	    0.006462	   -0.004797	    0.038899	    0.034102	   -0.011629	    0.091514	    0.079885	   -0.043158	    0.001456	   -0.041702	    0.090771	    0.079806	    0.170577
     8.925	0	0	    0	   -0.022395	    0.014047	   -0.008349	   -0.060766	    0.036664	   -0.024102	   -0.044705	    0.023111	   -0.021594	    0.009549	    0.023310	    0.032859	   -0.015696	    0.054232	    0.038536	   -0.036473	    0.047435	    0.010962	    0.042298	    0.073275	    0.115574	    0.029155	    0.070760	    0.099915	   -0.019845	    0.024804	    0.004958	   -0.030105	    0.045348	    0.015243	    0.019321	    0.016820	    0.036141	   -0.023175	    0.013907	   -0.009268	   -0.043230	    0.051749	    0.008519	    0.021306	    0.057967	    0.079273	    0.061310	    0.132277	    0.193587	    0.060843	    0.080267	    0.141109	   -0.034361	    0.030506	   -0.003855	   -0.052350	    0.023639	   -0.028711	   -0.011459	    0.016384	    0.004924	   -0.034023	    0.058948	    0.024925	   -0.021817	    0.026175	    0.004358	    0.078176	    0.082891	    0.161068
     9.000	0	0	    0	   -0.020444	    0.021684	    0.001240	   -0.063717	    0.038138	   -0.025578	   -0.042864	    0.028207	   -0.014656	    0.010378	    0.018703	    0.029081	   -0.015126	    0.060517	    0.045390	   -0.037914	    0.050606	    0.012691	    0.030717	    0.067173	    0.097890	    0.008591	    0.085988	    0.094579	   -0.033446	    0.032234	   -0.001212	   -0.048007	    0.048885	    0.000878	    0.001181	    0.019698	    0.020880	   -0.024456	    0.010457	   -0.013999	   -0.053993	    0.064005	    0.010012	   -0.002294	    0.058293	    0.055998	    0.022413	    0.126362	    0.148775	    0.042156	    0.074048	    0.116205	   -0.035107	    0.026573	   -0.008534	   -0.031692	    0.014491	   -0.017202	    0.015102	    0.007741	    0.022842	   -0.028161	    0.040748	    0.012587	   -0.020015	    0.030442	    0.010427	    0.050976	    0.059880	    0.110856
     9.075	0	0	    0	   -0.027828	    0.021613	   -0.006215	   -0.070072	    0.036167	   -0.033906	   -0.037360	    0.034303	   -0.003057	    0.014413	    0.026873	    0.041286	   -0.029302	    0.056273	    0.026970	   -0.042231	    0.050624	    0.008393	    0.035688	    0.067892	    0.103580	   -0.027377	    0.079317	    0.051940	   -0.059247	    0.012145	   -0.047102	   -0.139587	    0.009456	   -0.130131	   -0.019393	   -0.022555	   -0.041948	   -0.053775	    0.007408	   -0.046368	   -0.113522	    0.033284	   -0.080237	   -0.019649	    0.037118	    0.017469	    0.027104	    0.096941	    0.124045	    0.018891	    0.051810	    0.070701	   -0.032896	    0.032648	   -0.000247	    0.042626	    0.071674	    0.114300	    0.096483	    0.074812	    0.171296	    0.009415	    0.060031	    0.069445	   -0.040937	    0.026178	   -0.014759	    0.037163	    0.034919	    0.072082
     9.150	0	0	    0	   -0.023583	    0.019919	   -0.003663	   -0.064817	    0.037938	   -0.026879	   -0.037144	    0.041770	    0.004626	    0.018455	    0.031073	    0.049528	   -0.032759	    0.062373	    0.029614	   -0.031827	    0.062130	    0.030303	    0.049692	    0.069883	    0.119576	   -0.026226	    0.056012	    0.029786	   -0.053280	   -0.005352	   -0.058632	   -0.128135	   -0.039745	   -0.167880	   -0.007563	   -0.020154	   -0.027716	   -0.073028	   -0.039842	   -0.112869	   -0.124358	   -0.015648	   -0.140006	   -0.007902	    0.027137	    0.019235	    0.040936	    0.111512	    0.152449	    0.022265	    0.040960	    0.063224	   -0.028185	    0.042175	    0.013990	    0.030784	    0.105106	    0.135890	    0.074981	    0.111878	    0.186859	    0.019946	    0.107632	    0.127579	   -0.054261	    0.006508	   -0.047753	    0.060271	    0.033491	    0.093762
     9.225	0	0	    0	   -0.022173	    0.016490	   -0.005683	   -0.054849	    0.036986	   -0.017863	   -0.029117	    0.036514	    0.007397	    0.024132	    0.032379	    0.056511	   -0.031219	    0.063263	    0.032044	   -0.026110	    0.060765	    0.034655	    0.063280	    0.070455	    0.133734	   -0.003788	    0.062943	    0.059155	   -0.041708	   -0.004203	   -0.045911	   -0.166806	   -0.006171	   -0.172977	   -0.028826	   -0.016695	   -0.045522	   -0.057497	   -0.027870	   -0.085367	   -0.119282	   -0.013749	   -0.133031	    0.003569	    0.031369	    0.034938	    0.075512	    0.118627	    0.194139	    0.044623	    0.053546	    0.098170	   -0.023336	    0.043677	    0.020341	    0.092997	    0.099740	    0.192737	    0.160107	    0.088715	    0.248822	    0.031474	    0.110797	    0.142271	   -0.047158	    0.005426	   -0.041732	    0.085880	    0.055798	    0.141678
     9.300	0	0	    0	    0.020603	    0.021710	    0.042313	   -0.068453	    0.043875	   -0.024578	   -0.065881	    0.055443	   -0.010437	    0.023956	    0.052042	    0.075998	   -0.109407	    0.078427	   -0.030981	   -0.073803	    0.103206	    0.029403	    0.083698	    0.093464	    0.177162	    0.008084	    0.062060	    0.070144	   -0.014805	   -0.006704	   -0.021508	   -0.280227	   -0.094464	   -0.374691	   -0.079319	   -0.058444	   -0.137763	   -0.136623	   -0.054920	   -0.191543	   -0.194244	   -0.038320	   -0.232564	   -0.010537	    0.016233	    0.005696	    0.065270	    0.128112	    0.193383	    0.055159	    0.081007	    0.136166	   -0.040583	    0.048347	    0.007764	    0.115530	    0.177753	    0.293283	    0.261069	    0.208571	    0.469639	    0.065391	    0.136201	    0.201591	   -0.067826	   -0.002034	   -0.069860	    0.077879	    0.077366	    0.155245
     9.375	0	0	    0	    0.025904	    0.072669	    0.098573	   -0.069886	    0.044729	   -0.025157	   -0.070679	    0.054167	   -0.016512	   -0.001115	    0.085246	    0.084130	   -0.215416	    0.012144	   -0.203272	   -0.111554	    0.066257	   -0.045296	    0.075090	    0.111558	    0.186648	   -0.006947	    0.058925	    0.051978	   -0.017927	    0.005343	   -0.012584	   -0.248754	   -0.131423	   -0.380177	   -0.039523	   -0.072601	   -0.112125	   -0.169052	   -0.099869	   -0.268921	   -0.235178	   -0.093791	   -0.328968	   -0.028783	    0.017532	   -0.011251	   -0.002625	    0.123725	    0.121100	    0.032392	    0.086077	    0.118469	   -0.030859	    0.035408	    0.004549	    0.084614	    0.179196	    0.263811	    0.199791	    0.253872	    0.453663	    0.069337	    0.164720	    0.234057	   -0.071970	   -0.010849	   -0.082818	    0.032441	    0.055173	    0.087614
     9.450	0	0	    0	    0.001906	    0.067498	    0.069404	   -0.052491	    0.044791	   -0.007701	   -0.058005	    0.039423	   -0.018582	    0.023288	    0.077795	    0.101083	   -0.137402	   -0.023571	   -0.160973	   -0.040395	    0.064602	    0.024207	    0.040454	    0.089767	    0.130221	   -0.062346	    0.047852	   -0.014494	   -0.044137	    0.000838	   -0.043299	   -0.106701	   -0.088489	   -0.195191	   -0.022094	   -0.035841	   -0.057936	   -0.114195	   -0.103615	   -0.217810	   -0.177402	   -0.101040	   -0.278442	   -0.046412	   -0.003477	   -0.049889	   -0.032087	    0.063074	    0.030987	   -0.002433	    0.047369	    0.044937	   -0.020786	    0.048566	    0.027780	    0.019261	    0.125616	    0.144877	    0.076340	    0.161013	    0.237353	    0.039254	    0.166479	    0.205733	   -0.076436	   -0.013646	   -0.090082	    0.005108	    0.016734	    0.021842
     9.525	0	0	    0	   -0.024169	    0.029066	    0.004897	   -0.067201	    0.042476	   -0.024725	   -0.056897	    0.029138	   -0.027759	    0.024077	    0.053842	    0.077920	   -0.070785	    0.041877	   -0.028908	   -0.038154	    0.061867	    0.023713	    0.016092	    0.061289	    0.077380	   -0.058791	    0.022261	   -0.036530	   -0.046385	   -0.005885	   -0.052270	   -0.050472	   -0.000136	   -0.050608	   -0.009061	   -0.030120	   -0.039181	   -0.049147	   -0.036117	   -0.085263	   -0.121533	   -0.063213	   -0.184746	   -0.025762	    0.007694	   -0.018068	   -0.029004	    0.050266	    0.021262	    0.006351	    0.028902	    0.035253	   -0.030347	    0.045883	    0.015536	   -0.034186	    0.076477	    0.042290	    0.007591	    0.080351	    0.087942	    0.001113	    0.127212	    0.128325	   -0.046782	   -0.009571	   -0.056352	    0.020908	    0.009590	    0.030498
     9.600	0	0	    0	   -0.025756	    0.018598	   -0.007159	   -0.064731	    0.039717	   -0.025014	   -0.058814	    0.026140	   -0.032674	    0.012023	    0.029492	    0.041515	   -0.044161	    0.040250	   -0.003911	   -0.035367	    0.061941	    0.026574	    0.016370	    0.046816	    0.063186	   -0.031623	    0.032340	    0.000718	   -0.036774	    0.011366	   -0.025407	   -0.033311	    0.044775	    0.011464	   -0.001983	   -0.004888	   -0.006871	   -0.025153	   -0.005592	   -0.030745	   -0.080915	    0.019520	   -0.061395	   -0.010059	    0.037355	    0.027296	    0.050733	    0.068680	    0.119413	    0.038841	    0.034822	    0.073663	   -0.034767	    0.040215	    0.005448	   -0.060635	    0.027314	   -0.033322	   -0.012206	    0.030252	    0.018046	   -0.026817	    0.076722	    0.049904	   -0.029855	    0.022331	   -0.007524	    0.086388	    0.031383	    0.117771
     9.675	0	0	    0	   -0.020494	    0.022514	    0.002021	   -0.075586	    0.044197	   -0.031389	   -0.051994	    0.016803	   -0.035192	    0.017358	    0.018419	    0.035777	   -0.037194	    0.054898	    0.017704	   -0.034352	    0.061285	    0.026933	    0.045450	    0.060123	    0.105573	    0.030971	    0.071228	    0.102200	   -0.036446	    0.024790	   -0.011656	   -0.106383	    0.054551	   -0.051833	   -0.037755	   -0.011953	   -0.049708	   -0.027017	    0.017150	   -0.009866	   -0.114532	    0.038905	   -0.075627	   -0.007977	    0.040944	    0.032968	    0.076334	    0.093172	    0.169505	    0.085185	    0.090949	    0.176134	   -0.043387	    0.033119	   -0.010268	    0.013474	    0.017629	    0.031103	    0.058118	    0.021626	    0.079744	   -0.013300	    0.054140	    0.040840	   -0.039072	    0.026825	   -0.012248	    0.114355	    0.097837	    0.212192
     9.750	0	0	    0	   -0.004713	    0.026375	    0.021662	   -0.084633	    0.040617	   -0.044017	   -0.075633	    0.056098	   -0.019535	    0.037523	    0.034322	    0.071846	   -0.054732	    0.046949	   -0.007784	   -0.031285	    0.081143	    0.049858	    0.070288	    0.085291	    0.155579	    0.044845	    0.078347	    0.123193	   -0.037513	   -0.012146	   -0.049660	   -0.244692	   -0.042315	   -0.287008	   -0.071836	   -0.052220	   -0.124056	   -0.071631	   -0.014769	   -0.086400	   -0.177751	   -0.018110	   -0.195861	   -0.011579	    0.027204	    0.015625	    0.086368	    0.107159	    0.193527	    0.086461	    0.124155	    0.210616	   -0.041742	    0.042873	    0.001132	    0.092750	    0.138496	    0.231247	    0.187255	    0.147700	    0.334955	    0.038517	    0.102136	    0.140653	   -0.077074	    0.017623	   -0.059451	    0.127794	    0.126669	    0.254463
     9.825	0	0	    0	    0.028875	    0.067959	    0.096834	   -0.072509	    0.041550	   -0.030959	   -0.071099	    0.042382	   -0.028718	    0.016452	    0.083872	    0.100324	   -0.155107	    0.059317	   -0.095790	   -0.057553	    0.088178	    0.030625	    0.084244	    0.107405	    0.191649	    0.057361	    0.087878	    0.145238	    0.002036	    0.014306	    0.016343	   -0.243105	   -0.118758	   -0.361863	   -0.041280	   -0.071556	   -0.112835	   -0.123404	   -0.048371	   -0.171775	   -0.209747	   -0.069775	   -0.279522	    0.004530	    0.037106	    0.041636	    0.064168	    0.129924	    0.194092	    0.100738	    0.144677	    0.245415	   -0.066045	    0.045374	   -0.020672	    0.069648	    0.168229	    0.237877	    0.143360	    0.211757	    0.355117	    0.054350	    0.148320	    0.202670	   -0.077603	   -0.000394	   -0.077997	    0.112140	    0.156490	    0.268630
     9.900	0	0	    0	    0.010049	    0.079024	    0.089073	   -0.059806	    0.049324	   -0.010483	   -0.060279	    0.041818	   -0.018461	    0.028191	    0.077931	    0.106121	   -0.101584	    0.021200	   -0.080384	   -0.033655	    0.090710	    0.057054	    0.062017	    0.097766	    0.159784	    0.038731	    0.095231	    0.133961	   -0.035451	    0.020474	   -0.014977	   -0.141220	   -0.071430	   -0.212651	   -0.029534	   -0.037423	   -0.066957	   -0.074366	   -0.057217	   -0.131583	   -0.167579	   -0.067574	   -0.235152	   -0.027577	    0.025809	   -0.001769	    0.033027	    0.097680	    0.130707	    0.054183	    0.128623	    0.182805	   -0.037520	    0.041895	    0.004375	    0.052258	    0.120746	    0.173004	    0.106711	    0.128737	    0.235448	    0.046080	    0.159946	    0.206026	   -0.068213	   -0.005748	   -0.073961	    0.067549	    0.113013	    0.180562
