 [File Information]      		 [Data Line]	36
Measured Date	2024/05/21 102306
ID		Version	11.0
Name	tristan_5	[HeaderType]	11.0/11.0
Comment	
[Measurement Info.]
Holder Location	       0
Block Design	Off     
Pre.Rest Time	       0
Task Time	       0
Pos.Rest Time	       0
Loop	       0
Averaging	       1
Total Points	     822
[.INF File]
Filename	Cognitive1.INF
[Condition-1]
HV Switching	OFF
 R1 ,R2 ,R3 ,R4 ,R5 ,R6 ,R7 ,R8 
 120.00, 70.00,120.00,100.00, 90.00, 70.00,120.00,120.00
 Gain(X1,X4,X16,X64)
 R1 ,R2 ,R3 ,R4 ,R5 ,R6 ,R7 ,R8 
 1,1,1,1,1,1,1,1
[Analysis Condition]
Smoothed Type	None            
Smoothed Points	       0
Smoothed Loop	       0
Baseline Method	None            
Baseline location	
[Text Info.]
Output Mode	Continious      	Task No.		Data Type	Hb      
Time Range	    0.00	   61.58	Averaing	1
(1,3)(5,3)(5,7)(2,7)(2,4)(6,4)(6,8)(1,1)(3,3)(5,5)(7,7)(2,2)(4,4)(6,6)(8,8)(3,1)(3,5)(7,5)(7,2)(4,2)(4,6)(8,6)
         	     	     	     	    ch- 1	    ch- 1	    ch- 1	    ch- 2	    ch- 2	    ch- 2	    ch- 3	    ch- 3	    ch- 3	    ch- 4	    ch- 4	    ch- 4	    ch- 5	    ch- 5	    ch- 5	    ch- 6	    ch- 6	    ch- 6	    ch- 7	    ch- 7	    ch- 7	    ch- 8	    ch- 8	    ch- 8	    ch- 9	    ch- 9	    ch- 9	    ch-10	    ch-10	    ch-10	    ch-11	    ch-11	    ch-11	    ch-12	    ch-12	    ch-12	    ch-13	    ch-13	    ch-13	    ch-14	    ch-14	    ch-14	    ch-15	    ch-15	    ch-15	    ch-16	    ch-16	    ch-16	    ch-17	    ch-17	    ch-17	    ch-18	    ch-18	    ch-18	    ch-19	    ch-19	    ch-19	    ch-20	    ch-20	    ch-20	    ch-21	    ch-21	    ch-21	    ch-22	    ch-22	    ch-22
Time(sec)	Task	Mark	Count	    oxyHb   	  deoxyHb	  totalHb	    oxyHb   	  deoxyHb	  totalHb	    oxyHb   	  deoxyHb	  totalHb	    oxyHb   	  deoxyHb	  totalHb	    oxyHb   	  deoxyHb	  totalHb	    oxyHb   	  deoxyHb	  totalHb	    oxyHb   	  deoxyHb	  totalHb	    oxyHb   	  deoxyHb	  totalHb	    oxyHb   	  deoxyHb	  totalHb	    oxyHb   	  deoxyHb	  totalHb	    oxyHb   	  deoxyHb	  totalHb	    oxyHb   	  deoxyHb	  totalHb	    oxyHb   	  deoxyHb	  totalHb	    oxyHb   	  deoxyHb	  totalHb	    oxyHb   	  deoxyHb	  totalHb	    oxyHb   	  deoxyHb	  totalHb	    oxyHb   	  deoxyHb	  totalHb	    oxyHb   	  deoxyHb	  totalHb	    oxyHb   	  deoxyHb	  totalHb	    oxyHb   	  deoxyHb	  totalHb	    oxyHb   	  deoxyHb	  totalHb	    oxyHb   	  deoxyHb	  totalHb
     0.000	0	0Z	    0	    0.000000	    0.000000	    0.000000	    0.000000	    0.000000	    0.000000	    0.000000	    0.000000	    0.000000	    0.000000	    0.000000	    0.000000	    0.000000	    0.000000	    0.000000	    0.000000	    0.000000	    0.000000	    0.000000	    0.000000	    0.000000	    0.000000	    0.000000	    0.000000	    0.000000	    0.000000	    0.000000	    0.000000	    0.000000	    0.000000	    0.000000	    0.000000	    0.000000	    0.000000	    0.000000	    0.000000	    0.000000	    0.000000	    0.000000	    0.000000	    0.000000	    0.000000	    0.000000	    0.000000	    0.000000	    0.000000	    0.000000	    0.000000	    0.000000	    0.000000	    0.000000	    0.000000	    0.000000	    0.000000	    0.000000	    0.000000	    0.000000	    0.000000	    0.000000	    0.000000	    0.000000	    0.000000	    0.000000	    0.000000	    0.000000	    0.000000
     0.075	0	0	    0	    0.018763	    0.022839	    0.041602	   -0.017097	    0.007094	   -0.010003	   -0.068835	    0.044510	   -0.024325	   -0.049439	    0.053776	    0.004337	   -0.113816	   -0.031483	   -0.145299	   -0.071645	   -0.095505	   -0.167150	    0.005046	    0.018728	    0.023774	   -0.002565	   -0.000267	   -0.002832	    0.015091	    0.008577	    0.023668	   -0.013254	   -0.025052	   -0.038306	   -0.013331	   -0.013309	   -0.026640	   -0.054533	   -0.014987	   -0.069520	   -0.051226	   -0.029656	   -0.080882	    0.003624	    0.004891	    0.008515	    0.003459	   -0.001072	    0.002387	    0.000556	    0.002127	    0.002683	    0.007342	   -0.000005	    0.007337	    0.008401	    0.036597	    0.044998	   -0.002029	    0.057741	    0.055712	    0.011858	    0.002154	    0.014012	    0.004256	    0.005155	    0.009411	   -0.001190	   -0.004285	   -0.005475
     0.150	0	0	    0	    0.007976	    0.040241	    0.048217	   -0.005518	    0.000858	   -0.004660	    0.003973	    0.000477	    0.004450	   -0.051585	    0.062775	    0.011190	   -0.095421	   -0.078055	   -0.173475	    0.096440	   -0.143126	   -0.046686	   -0.012623	    0.018119	    0.005495	   -0.003937	   -0.003394	   -0.007331	    0.001030	    0.017833	    0.018862	    0.043086	   -0.045774	   -0.002687	    0.043898	   -0.000930	    0.042968	   -0.057552	   -0.021965	   -0.079517	   -0.015124	   -0.057063	   -0.072186	    0.001304	    0.006523	    0.007827	   -0.001936	    0.000835	   -0.001101	   -0.005488	    0.002138	   -0.003349	   -0.004345	    0.003945	   -0.000400	   -0.103848	    0.032825	   -0.071023	   -0.177978	    0.046828	   -0.131150	   -0.007946	    0.008430	    0.000484	   -0.007541	    0.009553	    0.002012	    0.001242	   -0.002526	   -0.001285
     0.225	0	0	    0	   -0.081157	   -0.008352	   -0.089510	    0.016298	    0.000697	    0.016995	   -0.021926	   -0.071837	   -0.093763	   -0.060548	   -0.041026	   -0.101574	    0.172403	   -0.004394	    0.168009	    0.298927	   -0.003513	    0.295414	   -0.063223	   -0.034700	   -0.097924	   -0.000051	   -0.006453	   -0.006504	   -0.038404	    0.006067	   -0.032337	    0.242838	    0.117795	    0.360633	    0.065466	    0.037221	    0.102687	    0.114265	   -0.004309	    0.109957	    0.140269	    0.002859	    0.143129	    0.009241	    0.020944	    0.030185	   -0.004740	   -0.000785	   -0.005525	   -0.004702	   -0.007043	   -0.011745	   -0.042928	    0.006487	   -0.036441	   -0.206449	   -0.092516	   -0.298965	   -0.316049	   -0.181162	   -0.497211	   -0.103839	   -0.013783	   -0.117622	   -0.010545	    0.004328	   -0.006217	    0.000021	   -0.003169	   -0.003148
     0.300	0	0	    0	   -0.082713	   -0.065853	   -0.148566	    0.023366	   -0.001819	    0.021547	    0.007232	   -0.078471	   -0.071239	   -0.040436	   -0.122655	   -0.163090	    0.182514	    0.027162	    0.209676	    0.274556	    0.019503	    0.294059	   -0.036727	   -0.050102	   -0.086829	   -0.000198	    0.005741	    0.005543	   -0.061356	    0.012602	   -0.048754	    0.123931	    0.165896	    0.289827	   -0.007745	    0.009646	    0.001901	    0.100525	    0.099148	    0.199674	    0.084705	    0.096633	    0.181338	   -0.006456	    0.019974	    0.013518	   -0.003498	   -0.002001	   -0.005499	   -0.006866	   -0.013799	   -0.020664	   -0.018780	    0.008705	   -0.010075	   -0.057020	   -0.089663	   -0.146683	   -0.087752	   -0.158407	   -0.246159	   -0.076174	   -0.060723	   -0.136896	   -0.013665	    0.028463	    0.014798	   -0.006189	   -0.003710	   -0.009900
     0.375	0	0	    0	   -0.010105	   -0.031490	   -0.041595	   -0.000414	    0.013022	    0.012609	   -0.018847	   -0.020823	   -0.039670	   -0.059543	   -0.055656	   -0.115199	    0.041258	    0.053684	    0.094943	    0.096773	    0.064731	    0.161503	   -0.009664	   -0.005703	   -0.015367	   -0.009537	   -0.003482	   -0.013020	   -0.011262	    0.002682	   -0.008580	    0.036876	    0.058926	    0.095802	   -0.017104	   -0.034852	   -0.051956	   -0.047592	    0.019181	   -0.028411	    0.024225	    0.037507	    0.061731	   -0.007700	    0.008915	    0.001215	   -0.003293	    0.000560	   -0.002733	   -0.006467	   -0.011798	   -0.018265	   -0.006415	    0.020565	    0.014150	   -0.012027	    0.010949	   -0.001078	   -0.017516	    0.010133	   -0.007384	   -0.022298	   -0.026379	   -0.048676	   -0.015515	    0.017071	    0.001557	   -0.007352	   -0.006460	   -0.013811
     0.450	0	0	    0	   -0.014952	    0.013287	   -0.001665	   -0.002187	    0.010361	    0.008174	   -0.007988	    0.002898	   -0.005091	   -0.052000	    0.025072	   -0.026928	   -0.054415	   -0.019839	   -0.074255	    0.144860	   -0.044407	    0.100453	   -0.017732	    0.006957	   -0.010776	   -0.009979	   -0.007962	   -0.017941	   -0.015553	    0.018356	    0.002803	    0.062948	    0.010776	    0.073723	    0.016843	   -0.013703	    0.003140	   -0.066722	   -0.029081	   -0.095803	    0.005795	   -0.028098	   -0.022303	   -0.005146	    0.006904	    0.001758	   -0.004530	    0.000016	   -0.004514	   -0.013704	   -0.010341	   -0.024045	   -0.014362	    0.020979	    0.006617	   -0.088319	    0.026961	   -0.061359	   -0.118155	    0.029503	   -0.088651	   -0.033882	   -0.001809	   -0.035691	   -0.023442	    0.008035	   -0.015407	    0.001246	   -0.008143	   -0.006897
     0.525	0	0	    0	   -0.077011	   -0.016563	   -0.093574	    0.023428	    0.001197	    0.024625	    0.008430	   -0.025426	   -0.016996	   -0.062399	    0.001199	   -0.061201	    0.055824	   -0.011094	    0.044729	    0.272234	    0.009158	    0.281391	   -0.032751	   -0.019476	   -0.052227	    0.009140	   -0.010209	   -0.001069	   -0.016817	    0.018562	    0.001745	    0.243323	    0.108374	    0.351698	    0.025650	    0.009868	    0.035517	   -0.017115	   -0.035970	   -0.053085	    0.087503	    0.005601	    0.093104	    0.031179	    0.002885	    0.034063	   -0.001654	    0.018719	    0.017065	    0.003383	   -0.022919	   -0.019536	   -0.038175	    0.027989	   -0.010187	   -0.176892	   -0.069747	   -0.246639	   -0.224306	   -0.097155	   -0.321461	   -0.065801	   -0.022800	   -0.088601	   -0.014365	    0.006744	   -0.007621	    0.025765	   -0.002517	    0.023248
     0.600	0	0	    0	   -0.075955	   -0.053756	   -0.129711	    0.027092	    0.005873	    0.032965	    0.013223	   -0.030406	   -0.017183	   -0.062704	   -0.055111	   -0.117815	    0.094984	    0.028762	    0.123746	    0.267561	    0.035242	    0.302804	   -0.022175	   -0.028097	   -0.050272	    0.010277	    0.022985	    0.033262	   -0.025704	    0.044936	    0.019232	    0.188569	    0.187770	    0.376339	    0.003696	    0.015029	    0.018725	    0.026386	    0.015909	    0.042296	    0.098960	    0.072173	    0.171133	    0.002153	    0.029170	    0.031323	   -0.006505	    0.031585	    0.025080	    0.011315	   -0.014271	   -0.002956	   -0.022156	    0.020072	   -0.002084	   -0.115950	   -0.106076	   -0.222026	   -0.160141	   -0.135188	   -0.295330	   -0.059850	   -0.061215	   -0.121065	    0.004307	    0.027007	    0.031314	    0.025342	    0.010019	    0.035361
     0.675	0	0	    0	   -0.044478	   -0.051906	   -0.096384	    0.011580	    0.013877	    0.025456	   -0.000251	    0.002010	    0.001759	   -0.047402	   -0.042704	   -0.090106	    0.032345	    0.029265	    0.061610	    0.178765	    0.061232	    0.239997	    0.007839	   -0.014513	   -0.006674	   -0.003889	    0.025887	    0.021998	   -0.024957	    0.005134	   -0.019823	    0.072299	    0.100598	    0.172897	   -0.024279	   -0.007093	   -0.031372	   -0.025884	    0.012032	   -0.013851	    0.059650	    0.047251	    0.106900	    0.001677	    0.013976	    0.015652	    0.001563	    0.042058	    0.043621	    0.030880	    0.001845	    0.032725	    0.012513	    0.033357	    0.045869	   -0.028796	   -0.017612	   -0.046408	   -0.058568	   -0.038429	   -0.096997	   -0.023438	   -0.051038	   -0.074477	    0.003249	    0.034035	    0.037284	    0.043265	    0.015030	    0.058294
     0.750	0	0	    0	   -0.021626	   -0.006690	   -0.028316	    0.010592	    0.006831	    0.017424	    0.013020	    0.005786	    0.018806	   -0.055600	    0.012100	   -0.043501	   -0.062963	   -0.015585	   -0.078548	    0.202471	   -0.008370	    0.194100	    0.022999	    0.008963	    0.031962	   -0.005834	    0.017147	    0.011313	   -0.002426	    0.015224	    0.012797	    0.086513	    0.026715	    0.113228	    0.032209	   -0.018100	    0.014108	   -0.059599	   -0.016403	   -0.076002	    0.032266	   -0.011617	    0.020648	    0.026497	    0.010840	    0.037337	    0.040255	    0.060790	    0.101046	    0.077697	    0.030021	    0.107718	   -0.005014	    0.031871	    0.026856	   -0.115532	    0.024730	   -0.090802	   -0.168279	    0.018953	   -0.149326	   -0.024207	   -0.014413	   -0.038620	   -0.005703	    0.019313	    0.013610	    0.109121	    0.047063	    0.156184
     0.825	0	0	    0	   -0.073780	   -0.027334	   -0.101114	   -0.003682	   -0.005074	   -0.008755	   -0.023842	   -0.047512	   -0.071354	   -0.067202	   -0.027496	   -0.094697	    0.144490	   -0.022488	    0.122002	    0.295484	    0.013247	    0.308731	   -0.011612	    0.005213	   -0.006399	    0.020904	    0.057255	    0.078159	    0.014005	    0.038066	    0.052071	    0.314255	    0.143519	    0.457774	    0.048623	    0.043860	    0.092483	    0.089898	   -0.034715	    0.055182	    0.128550	    0.005371	    0.133921	    0.055069	    0.049694	    0.104763	    0.007692	    0.116051	    0.123743	    0.094168	    0.083177	    0.177346	   -0.056844	    0.023990	   -0.032855	   -0.248786	   -0.080225	   -0.329011	   -0.355891	   -0.165345	   -0.521236	   -0.104488	   -0.009028	   -0.113516	   -0.036836	    0.017895	   -0.018941	    0.072804	    0.088142	    0.160946
     0.900	0	0	    0	   -0.083245	   -0.042361	   -0.125606	   -0.014344	    0.000644	   -0.013700	   -0.017852	   -0.074261	   -0.092114	   -0.067187	   -0.134470	   -0.201657	    0.197181	    0.040746	    0.237927	    0.295612	    0.020359	    0.315970	   -0.016612	   -0.015633	   -0.032246	   -0.021814	    0.047485	    0.025671	   -0.021539	    0.087474	    0.065935	    0.213377	    0.252113	    0.465489	    0.005049	    0.048124	    0.053173	    0.127437	    0.098660	    0.226097	    0.172147	    0.178477	    0.350624	    0.023246	    0.087076	    0.110322	    0.013959	    0.078535	    0.092494	    0.046767	    0.028910	    0.075677	   -0.057347	    0.007618	   -0.049729	   -0.160800	   -0.162514	   -0.323315	   -0.241798	   -0.245923	   -0.487721	   -0.117461	   -0.074381	   -0.191841	   -0.023988	    0.043483	    0.019495	    0.072220	    0.050488	    0.122707
     0.975	0	0	    0	   -0.063442	   -0.049512	   -0.112954	   -0.007372	   -0.011652	   -0.019024	   -0.030908	   -0.038115	   -0.069023	   -0.050150	   -0.123141	   -0.173291	    0.130020	    0.048191	    0.178211	    0.274180	    0.033755	    0.307935	    0.018814	   -0.007330	    0.011484	   -0.019340	    0.042768	    0.023428	   -0.036858	    0.016935	   -0.019922	    0.042696	    0.119631	    0.162326	   -0.057513	   -0.032536	   -0.090049	    0.030624	    0.073617	    0.104240	    0.054193	    0.112032	    0.166224	    0.014368	    0.048082	    0.062450	    0.035143	    0.105269	    0.140413	    0.080629	    0.029010	    0.109639	   -0.022233	    0.005712	   -0.016522	   -0.056188	   -0.040947	   -0.097135	   -0.064572	   -0.080885	   -0.145457	   -0.053108	   -0.060853	   -0.113961	   -0.030355	    0.037162	    0.006808	    0.091541	    0.064684	    0.156225
     1.050	0	0	    0	   -0.012932	   -0.002593	   -0.015525	   -0.014132	    0.003945	   -0.010187	   -0.031358	    0.010291	   -0.021067	   -0.036569	   -0.042382	   -0.078950	    0.002096	    0.056548	    0.058645	    0.138184	    0.060711	    0.198895	    0.043935	    0.022339	    0.066274	   -0.006483	    0.045002	    0.038518	   -0.004329	    0.018295	    0.013967	   -0.029290	    0.029314	    0.000024	   -0.030024	   -0.034320	   -0.064344	   -0.045378	   -0.008796	   -0.054174	    0.006241	    0.046739	    0.052980	    0.024464	    0.029777	    0.054241	    0.059277	    0.105418	    0.164695	    0.083867	    0.060158	    0.144025	   -0.030926	    0.014179	   -0.016747	   -0.028297	    0.012029	   -0.016268	   -0.035074	    0.024035	   -0.011039	   -0.023771	   -0.008263	   -0.032035	   -0.032865	    0.016867	   -0.015999	    0.104225	    0.076780	    0.181005
     1.125	0	0	    0	    0.002307	    0.029648	    0.031955	   -0.011202	    0.010422	   -0.000780	   -0.034095	    0.028840	   -0.005255	   -0.064888	    0.037903	   -0.026985	   -0.089177	   -0.010820	   -0.099996	    0.145596	   -0.004091	    0.141505	    0.048184	    0.043266	    0.091450	    0.005000	    0.056325	    0.061325	    0.018265	    0.035405	    0.053670	   -0.042103	   -0.020618	   -0.062721	    0.000844	   -0.031648	   -0.030803	   -0.080299	   -0.020573	   -0.100872	   -0.021613	   -0.020046	   -0.041660	    0.043357	    0.042169	    0.085527	    0.070076	    0.114906	    0.184982	    0.082989	    0.082560	    0.165550	   -0.052257	    0.013545	   -0.038712	   -0.070504	    0.035826	   -0.034678	   -0.107315	    0.049449	   -0.057867	   -0.028176	    0.013688	   -0.014488	   -0.039885	    0.012102	   -0.027783	    0.114025	    0.092808	    0.206833
     1.200	0	0	    0	   -0.026694	    0.035405	    0.008711	   -0.005068	    0.003708	   -0.001360	   -0.026632	   -0.023878	   -0.050510	   -0.041029	    0.021202	   -0.019827	    0.079961	   -0.038344	    0.041617	    0.287029	    0.025304	    0.312333	    0.011741	    0.033295	    0.045036	   -0.015838	    0.051135	    0.035297	   -0.021664	    0.038167	    0.016503	    0.120335	    0.004576	    0.124911	    0.036430	    0.002511	    0.038941	    0.007692	   -0.045676	   -0.037984	    0.067953	    0.006884	    0.074836	    0.030985	    0.050989	    0.081974	    0.008458	    0.115359	    0.123817	    0.059427	    0.047889	    0.107316	   -0.065142	   -0.003728	   -0.068870	   -0.180486	   -0.009808	   -0.190295	   -0.293306	   -0.076655	   -0.369961	   -0.078426	    0.013840	   -0.064586	   -0.042902	    0.011384	   -0.031518	    0.072087	    0.071243	    0.143331
     1.275	0	0	    0	   -0.068453	   -0.010258	   -0.078711	   -0.021856	    0.002228	   -0.019628	   -0.032980	   -0.076574	   -0.109554	   -0.063964	   -0.095935	   -0.159900	    0.176572	    0.020335	    0.196907	    0.306491	    0.017822	    0.324313	   -0.029467	    0.005374	   -0.024093	   -0.051852	    0.019587	   -0.032265	   -0.049269	    0.014359	   -0.034910	    0.282745	    0.152004	    0.434749	    0.060104	    0.025628	    0.085732	    0.123019	    0.054167	    0.177186	    0.216127	    0.064026	    0.280153	    0.045627	    0.064110	    0.109737	   -0.030609	    0.061412	    0.030803	    0.033129	    0.008113	    0.041242	   -0.062166	   -0.006324	   -0.068490	   -0.255773	   -0.092238	   -0.348011	   -0.366127	   -0.197577	   -0.563705	   -0.128506	   -0.026089	   -0.154595	   -0.021522	    0.023668	    0.002146	    0.051883	    0.027531	    0.079413
     1.350	0	0	    0	   -0.084062	   -0.036859	   -0.120921	   -0.015519	    0.001137	   -0.014382	   -0.015643	   -0.061269	   -0.076912	   -0.072795	   -0.144983	   -0.217778	    0.196357	    0.034394	    0.230751	    0.322134	    0.025723	    0.347857	   -0.041192	   -0.016960	   -0.058153	   -0.051850	   -0.021787	   -0.073637	   -0.042812	    0.041670	   -0.001142	    0.223521	    0.228930	    0.452451	    0.061256	    0.062936	    0.124192	    0.130109	    0.113179	    0.243288	    0.270729	    0.241693	    0.512421	    0.038772	    0.095891	    0.134663	   -0.017661	    0.026476	    0.008815	    0.015970	   -0.026129	   -0.010159	   -0.082430	    0.000703	   -0.081728	   -0.252967	   -0.148849	   -0.401816	   -0.363404	   -0.249403	   -0.612806	   -0.154407	   -0.081315	   -0.235722	    0.003955	    0.074371	    0.078326	    0.035832	    0.033822	    0.069654
     1.425	0	0	    0	   -0.077890	   -0.046441	   -0.124331	   -0.014149	    0.000317	   -0.013832	   -0.000624	   -0.058244	   -0.058869	   -0.055192	   -0.144059	   -0.199251	    0.182176	    0.041413	    0.223588	    0.317943	    0.028187	    0.346130	   -0.009630	   -0.029764	   -0.039394	   -0.057416	   -0.027769	   -0.085185	   -0.080617	    0.025207	   -0.055410	    0.055125	    0.161212	    0.216336	   -0.022420	   -0.008837	   -0.031257	    0.086398	    0.121942	    0.208340	    0.117586	    0.221393	    0.338978	   -0.008237	    0.050612	    0.042375	   -0.012357	    0.023381	    0.011024	    0.007484	   -0.042117	   -0.034633	   -0.071050	   -0.012266	   -0.083316	   -0.099301	   -0.099548	   -0.198850	   -0.144207	   -0.184526	   -0.328733	   -0.100104	   -0.085904	   -0.186009	   -0.014769	    0.063216	    0.048446	    0.029694	    0.005020	    0.034715
     1.500	0	0	    0	   -0.017397	   -0.018936	   -0.036334	   -0.021739	    0.005352	   -0.016387	   -0.025914	   -0.042255	   -0.068169	   -0.058774	   -0.099990	   -0.158764	    0.108945	    0.055538	    0.164483	    0.250939	    0.076539	    0.327478	    0.027005	    0.009789	    0.036794	   -0.056478	   -0.039600	   -0.096078	   -0.018857	    0.003121	   -0.015737	   -0.017118	    0.034975	    0.017857	   -0.007188	   -0.053776	   -0.060964	   -0.010813	    0.025551	    0.014737	    0.054022	    0.089651	    0.143673	    0.014788	    0.021167	    0.035955	    0.004336	    0.042920	    0.047256	    0.029718	   -0.031811	   -0.002093	   -0.056993	   -0.000492	   -0.057485	   -0.083996	   -0.005724	   -0.089720	   -0.085813	   -0.006025	   -0.091838	   -0.044791	   -0.015712	   -0.060503	   -0.045515	    0.027159	   -0.018356	    0.058015	    0.026446	    0.084461
     1.575	0	0	    0	   -0.036088	    0.020621	   -0.015467	   -0.008894	   -0.006406	   -0.015300	   -0.009438	   -0.037437	   -0.046874	   -0.036705	   -0.041366	   -0.078071	    0.105624	    0.013620	    0.119244	    0.299221	    0.053327	    0.352548	   -0.010095	    0.022043	    0.011947	   -0.053903	   -0.028227	   -0.082130	   -0.041603	    0.024649	   -0.016954	    0.151192	    0.008237	    0.159430	    0.046798	    0.003173	    0.049971	    0.036844	   -0.025553	    0.011291	    0.091365	    0.049653	    0.141017	    0.012623	    0.032510	    0.045134	   -0.008835	    0.055297	    0.046462	    0.026790	   -0.012768	    0.014021	   -0.051322	    0.005028	   -0.046293	   -0.217408	   -0.023808	   -0.241216	   -0.336427	   -0.069154	   -0.405581	   -0.075127	    0.017399	   -0.057728	   -0.045102	    0.019600	   -0.025502	    0.054907	    0.033063	    0.087970
     1.650	0	0	    0	   -0.085992	   -0.034626	   -0.120618	   -0.020902	    0.015366	   -0.005536	   -0.019904	   -0.052541	   -0.072445	   -0.067592	   -0.110261	   -0.177854	    0.198306	    0.038784	    0.237090	    0.308591	    0.023746	    0.332337	   -0.034904	   -0.007640	   -0.042544	   -0.051155	   -0.024061	   -0.075217	   -0.049813	    0.019374	   -0.030439	    0.233023	    0.196672	    0.429695	    0.070288	    0.055762	    0.126050	    0.146302	    0.082721	    0.229023	    0.229992	    0.130238	    0.360230	    0.041961	    0.072508	    0.114469	   -0.009671	    0.045741	    0.036069	    0.028235	   -0.019814	    0.008421	   -0.062265	   -0.001572	   -0.063838	   -0.267967	   -0.124496	   -0.392463	   -0.376446	   -0.229731	   -0.606177	   -0.146622	   -0.029397	   -0.176019	    0.005628	    0.032596	    0.038224	    0.056310	    0.026929	    0.083238
     1.725	0	0	    0	   -0.088497	   -0.043548	   -0.132045	   -0.021157	    0.012259	   -0.008898	   -0.019778	   -0.049553	   -0.069331	   -0.058884	   -0.148716	   -0.207600	    0.203943	    0.060830	    0.264773	    0.308983	    0.030253	    0.339235	   -0.033199	   -0.018251	   -0.051450	   -0.050265	   -0.015627	   -0.065891	   -0.058122	    0.046215	   -0.011907	    0.178960	    0.212477	    0.391437	    0.045223	    0.065116	    0.110339	    0.151995	    0.113494	    0.265489	    0.194458	    0.238130	    0.432588	    0.014552	    0.084743	    0.099295	   -0.007901	    0.045986	    0.038085	    0.025617	   -0.022940	    0.002677	   -0.080487	   -0.007070	   -0.087557	   -0.221492	   -0.147584	   -0.369076	   -0.322513	   -0.254226	   -0.576739	   -0.127958	   -0.082499	   -0.210457	   -0.012443	    0.079473	    0.067030	    0.047093	    0.028974	    0.076066
     1.800	0	0	    0	   -0.086691	   -0.049329	   -0.136020	   -0.014379	    0.005201	   -0.009177	   -0.005863	   -0.050713	   -0.056576	   -0.051013	   -0.136466	   -0.187479	    0.179644	    0.054322	    0.233966	    0.305589	    0.027909	    0.333498	   -0.009308	   -0.016428	   -0.025736	   -0.055361	   -0.013157	   -0.068517	   -0.074133	    0.019827	   -0.054306	    0.095787	    0.130621	    0.226408	    0.043266	    0.009326	    0.052593	    0.092244	    0.098239	    0.190483	    0.098078	    0.147394	    0.245473	    0.014742	    0.051748	    0.066489	   -0.002131	    0.052188	    0.050057	    0.022842	   -0.026508	   -0.003666	   -0.066109	   -0.011496	   -0.077605	   -0.167417	   -0.072726	   -0.240142	   -0.258440	   -0.143087	   -0.401526	   -0.087281	   -0.052185	   -0.139466	   -0.036316	    0.049963	    0.013647	    0.056461	    0.023454	    0.079915
     1.875	0	0	    0	   -0.083191	   -0.043806	   -0.126996	   -0.004241	    0.010102	    0.005861	   -0.012802	   -0.041010	   -0.053812	   -0.043201	   -0.125408	   -0.168609	    0.188055	    0.045747	    0.233802	    0.320886	    0.029262	    0.350148	   -0.032077	   -0.004571	   -0.036648	   -0.048429	   -0.013498	   -0.061927	   -0.046448	    0.016184	   -0.030264	    0.227517	    0.130350	    0.357867	    0.082878	    0.032950	    0.115829	    0.142301	    0.052190	    0.194491	    0.186965	    0.101469	    0.288434	    0.022318	    0.058329	    0.080647	   -0.009483	    0.041634	    0.032152	    0.025767	   -0.021608	    0.004160	   -0.060345	    0.000607	   -0.059738	   -0.261553	   -0.100662	   -0.362215	   -0.373449	   -0.207431	   -0.580880	   -0.111522	   -0.012988	   -0.124510	   -0.004353	    0.027918	    0.023564	    0.040093	    0.021059	    0.061152
     1.950	0	0	    0	   -0.086878	   -0.047590	   -0.134468	    0.001275	    0.016785	    0.018059	   -0.004459	   -0.045220	   -0.049679	   -0.049632	   -0.141401	   -0.191033	    0.214451	    0.061076	    0.275527	    0.329635	    0.032823	    0.362458	   -0.028704	   -0.026074	   -0.054777	   -0.056070	   -0.014071	   -0.070141	   -0.050369	    0.045882	   -0.004487	    0.181976	    0.230699	    0.412675	    0.043518	    0.073447	    0.116964	    0.155971	    0.123482	    0.279453	    0.212737	    0.230749	    0.443486	    0.010463	    0.070625	    0.081088	   -0.017077	    0.033076	    0.015999	    0.008312	   -0.032572	   -0.024260	   -0.061524	    0.001123	   -0.060401	   -0.194087	   -0.157922	   -0.352009	   -0.285442	   -0.264261	   -0.549703	   -0.120432	   -0.074078	   -0.194510	    0.011623	    0.081327	    0.092950	    0.025729	    0.011656	    0.037385
     2.025	0	0	    0	   -0.067675	   -0.046337	   -0.114011	   -0.014810	    0.023391	    0.008581	   -0.018674	   -0.026674	   -0.045347	   -0.038474	   -0.126019	   -0.164492	    0.173601	    0.069589	    0.243190	    0.336520	    0.034774	    0.371294	    0.008005	   -0.019854	   -0.011849	   -0.056915	   -0.030133	   -0.087048	   -0.050130	    0.002722	   -0.047408	    0.022910	    0.128143	    0.151053	    0.005515	    0.001689	    0.007204	    0.079453	    0.095555	    0.175007	    0.103338	    0.146921	    0.250258	    0.015178	    0.033701	    0.048879	    0.017497	    0.031973	    0.049470	    0.014139	   -0.052731	   -0.038592	   -0.043548	    0.006409	   -0.037139	   -0.095703	   -0.047297	   -0.143000	   -0.125091	   -0.121217	   -0.246308	   -0.056121	   -0.048078	   -0.104199	   -0.024113	    0.056482	    0.032368	    0.064738	    0.005181	    0.069919
     2.100	0	0	    0	   -0.032394	   -0.003602	   -0.035996	   -0.012684	    0.014834	    0.002150	   -0.015095	   -0.037784	   -0.052879	   -0.044110	   -0.087650	   -0.131760	    0.114470	    0.061486	    0.175955	    0.316609	    0.068268	    0.384877	    0.010982	    0.015228	    0.026210	   -0.045314	   -0.019596	   -0.064911	   -0.016517	    0.026686	    0.010169	    0.048637	    0.033486	    0.082123	    0.045689	   -0.005176	    0.040512	    0.027715	    0.013438	    0.041153	    0.096373	    0.083041	    0.179413	    0.028494	    0.043317	    0.071810	    0.017546	    0.068712	    0.086259	    0.040236	   -0.012421	    0.027815	   -0.062015	    0.000764	   -0.061251	   -0.155806	   -0.015218	   -0.171024	   -0.241256	   -0.042749	   -0.284004	   -0.046798	    0.011369	   -0.035429	   -0.035565	    0.027645	   -0.007920	    0.081275	    0.039465	    0.120740
     2.175	0	0	    0	   -0.080256	   -0.013214	   -0.093470	   -0.009433	    0.017848	    0.008415	   -0.008349	   -0.041526	   -0.049875	   -0.029828	   -0.103227	   -0.133055	    0.186900	    0.064463	    0.251363	    0.316765	    0.040277	    0.357043	   -0.012463	    0.006816	   -0.005647	   -0.039082	   -0.002009	   -0.041091	   -0.044911	    0.029276	   -0.015635	    0.180619	    0.129535	    0.310154	    0.055805	    0.038382	    0.094187	    0.141276	    0.040996	    0.182271	    0.125531	    0.075566	    0.201097	    0.035218	    0.054937	    0.090155	    0.017545	    0.083277	    0.100823	    0.041665	   -0.004310	    0.037356	   -0.064647	    0.007840	   -0.056807	   -0.215539	   -0.081545	   -0.297084	   -0.338545	   -0.180885	   -0.519430	   -0.097163	    0.008447	   -0.088715	   -0.028516	    0.027723	   -0.000793	    0.075213	    0.049279	    0.124492
     2.250	0	0	    0	   -0.084832	   -0.039878	   -0.124710	   -0.006785	    0.018966	    0.012181	   -0.009248	   -0.042817	   -0.052065	   -0.039637	   -0.122354	   -0.161991	    0.212547	    0.055438	    0.267986	    0.318056	    0.035027	    0.353083	   -0.027903	   -0.001161	   -0.029064	   -0.030402	    0.008623	   -0.021779	   -0.041420	    0.036830	   -0.004590	    0.214386	    0.189459	    0.403845	    0.073380	    0.048608	    0.121987	    0.169281	    0.104605	    0.273887	    0.241168	    0.168331	    0.409499	    0.065587	    0.091141	    0.156728	    0.018670	    0.091237	    0.109907	    0.055341	   -0.001171	    0.054169	   -0.076184	    0.002932	   -0.073252	   -0.272838	   -0.110062	   -0.382900	   -0.374186	   -0.221213	   -0.595399	   -0.129322	   -0.026563	   -0.155885	    0.003282	    0.050211	    0.053493	    0.088981	    0.055004	    0.143986
     2.325	0	0	    0	   -0.085038	   -0.039885	   -0.124923	   -0.007055	    0.028841	    0.021785	   -0.009366	   -0.039436	   -0.048802	   -0.048196	   -0.138245	   -0.186441	    0.220825	    0.071762	    0.292587	    0.320341	    0.041289	    0.361630	   -0.023432	   -0.009444	   -0.032876	   -0.016329	    0.026748	    0.010419	   -0.034296	    0.059975	    0.025679	    0.189211	    0.227331	    0.416542	    0.042753	    0.077938	    0.120692	    0.175854	    0.134294	    0.310148	    0.239334	    0.260675	    0.500009	    0.050867	    0.127211	    0.178078	    0.032817	    0.102746	    0.135564	    0.067632	    0.005177	    0.072810	   -0.089634	   -0.009022	   -0.098656	   -0.237734	   -0.161311	   -0.399045	   -0.326748	   -0.259979	   -0.586727	   -0.140426	   -0.068616	   -0.209042	   -0.000791	    0.086378	    0.085588	    0.101868	    0.073622	    0.175490
     2.400	0	0	    0	   -0.076056	   -0.037144	   -0.113200	   -0.032003	    0.032816	    0.000813	   -0.020269	   -0.022348	   -0.042617	   -0.042706	   -0.120343	   -0.163049	    0.185341	    0.084679	    0.270020	    0.334244	    0.036543	    0.370787	    0.000240	    0.003177	    0.003418	   -0.010201	    0.040980	    0.030779	   -0.073309	    0.026618	   -0.046691	    0.000937	    0.143238	    0.144175	   -0.045002	    0.007786	   -0.037216	    0.096192	    0.118439	    0.214631	    0.100362	    0.213747	    0.314109	    0.015461	    0.080091	    0.095552	    0.053814	    0.114091	    0.167905	    0.067930	    0.017311	    0.085241	   -0.056595	   -0.010364	   -0.066959	   -0.075726	   -0.060621	   -0.136347	   -0.099793	   -0.142280	   -0.242072	   -0.071663	   -0.057170	   -0.128833	   -0.024846	    0.076466	    0.051620	    0.100384	    0.078241	    0.178624
     2.475	0	0	    0	   -0.016345	    0.001260	   -0.015085	   -0.025958	    0.024272	   -0.001686	   -0.032353	    0.013882	   -0.018471	   -0.002527	   -0.061348	   -0.063874	    0.032519	    0.131930	    0.164449	    0.206289	    0.103646	    0.309934	    0.056094	    0.020847	    0.076940	   -0.007218	    0.031678	    0.024460	   -0.014175	    0.013132	   -0.001043	   -0.039538	    0.019479	   -0.020059	   -0.000969	   -0.014290	   -0.015259	    0.016641	    0.040687	    0.057328	    0.017662	    0.100153	    0.117815	    0.035979	    0.039759	    0.075738	    0.057414	    0.118858	    0.176272	    0.077697	    0.030234	    0.107931	   -0.062797	    0.008501	   -0.054296	   -0.060331	    0.008505	   -0.051827	   -0.033581	    0.015971	   -0.017610	   -0.032650	    0.013686	   -0.018965	   -0.046550	    0.028062	   -0.018488	    0.106852	    0.088363	    0.195215
     2.550	0	0	    0	   -0.001481	    0.033921	    0.032440	   -0.028683	    0.033443	    0.004760	   -0.057067	    0.059486	    0.002418	   -0.028584	    0.051183	    0.022599	   -0.078262	    0.021033	   -0.057229	    0.128584	    0.048810	    0.177394	    0.065047	    0.049015	    0.114062	   -0.007353	    0.027229	    0.019876	   -0.006380	    0.024798	    0.018418	   -0.047141	    0.017256	   -0.029885	   -0.007011	   -0.002775	   -0.009786	   -0.041824	    0.022871	   -0.018953	   -0.021590	    0.026779	    0.005189	    0.035650	    0.045249	    0.080899	    0.055054	    0.116006	    0.171059	    0.077499	    0.033620	    0.111119	   -0.030735	    0.016338	   -0.014397	   -0.035543	    0.038439	    0.002896	   -0.026339	    0.060092	    0.033753	   -0.008184	    0.043180	    0.034995	   -0.025916	    0.030528	    0.004612	    0.106055	    0.088057	    0.194112
     2.625	0	0	    0	   -0.004568	    0.050656	    0.046088	   -0.029718	    0.031829	    0.002111	   -0.011064	    0.030750	    0.019685	   -0.026780	    0.058796	    0.032016	   -0.061370	   -0.042600	   -0.103970	    0.262518	   -0.001834	    0.260684	    0.032595	    0.052619	    0.085214	   -0.020092	    0.029734	    0.009642	   -0.020026	    0.033421	    0.013395	    0.028353	   -0.003643	    0.024710	    0.026653	    0.015054	    0.041707	   -0.042312	    0.005098	   -0.037214	    0.022336	   -0.002817	    0.019519	    0.018825	    0.045761	    0.064586	   -0.004671	    0.107947	    0.103277	    0.057154	    0.035654	    0.092809	   -0.031671	    0.023769	   -0.007902	   -0.135611	    0.042388	   -0.093223	   -0.192320	    0.045774	   -0.146546	   -0.031543	    0.054533	    0.022990	   -0.031745	    0.033649	    0.001904	    0.056515	    0.066397	    0.122912
     2.700	0	0	    0	   -0.078359	    0.007207	   -0.071153	   -0.025894	    0.022408	   -0.003486	   -0.030444	   -0.021819	   -0.052262	   -0.041742	   -0.032086	   -0.073828	    0.155134	    0.047476	    0.202610	    0.305498	    0.038621	    0.344119	   -0.016487	    0.010030	   -0.006456	   -0.069776	    0.003030	   -0.066746	   -0.054958	    0.010844	   -0.044114	    0.228331	    0.142667	    0.370998	    0.054542	    0.049937	    0.104479	    0.118883	    0.026640	    0.145523	    0.114246	    0.063185	    0.177431	    0.024234	    0.041448	    0.065681	   -0.019592	    0.044039	    0.024447	    0.028109	   -0.005841	    0.022268	   -0.070648	    0.021691	   -0.048957	   -0.242372	   -0.060730	   -0.303102	   -0.352599	   -0.135886	   -0.488485	   -0.104523	    0.018163	   -0.086360	   -0.028611	    0.032385	    0.003774	    0.037088	    0.021059	    0.058146
     2.775	0	0	    0	   -0.086976	   -0.038957	   -0.125933	   -0.017887	    0.019074	    0.001187	   -0.018572	   -0.043086	   -0.061658	   -0.065309	   -0.120596	   -0.185905	    0.203289	    0.068309	    0.271598	    0.318073	    0.045863	    0.363936	   -0.038169	   -0.011315	   -0.049484	   -0.057911	   -0.027180	   -0.085091	   -0.045546	    0.041185	   -0.004361	    0.213797	    0.251339	    0.465136	    0.086186	    0.064166	    0.150353	    0.159012	    0.126282	    0.285295	    0.248116	    0.207342	    0.455458	    0.047135	    0.081803	    0.128938	   -0.011742	    0.023745	    0.012003	    0.019002	   -0.027884	   -0.008882	   -0.085861	    0.022908	   -0.062953	   -0.257880	   -0.124684	   -0.382564	   -0.383536	   -0.222122	   -0.605658	   -0.156631	   -0.036759	   -0.193390	    0.015782	    0.070612	    0.086394	    0.054142	    0.008679	    0.062821
     2.850	0	0	    0	   -0.089162	   -0.043238	   -0.132400	   -0.006153	    0.030858	    0.024705	   -0.010579	   -0.028596	   -0.039175	   -0.058665	   -0.145133	   -0.203798	    0.214250	    0.079684	    0.293934	    0.324304	    0.051510	    0.375814	   -0.043451	   -0.021841	   -0.065292	   -0.050717	   -0.054348	   -0.105065	   -0.047024	    0.039383	   -0.007641	    0.200642	    0.229167	    0.429810	    0.066932	    0.098700	    0.165632	    0.130166	    0.134041	    0.264207	    0.252195	    0.279370	    0.531565	    0.040937	    0.099570	    0.140507	   -0.025466	    0.028951	    0.003485	   -0.005898	   -0.051913	   -0.057811	   -0.091650	   -0.009237	   -0.100886	   -0.246184	   -0.134622	   -0.380807	   -0.347503	   -0.254555	   -0.602059	   -0.157532	   -0.074012	   -0.231543	    0.009797	    0.097399	    0.107196	    0.036293	    0.024066	    0.060359
     2.925	0	0	    0	   -0.079238	   -0.045272	   -0.124510	   -0.013318	    0.036639	    0.023321	   -0.012775	   -0.023051	   -0.035827	   -0.041796	   -0.129928	   -0.171724	    0.194605	    0.085860	    0.280466	    0.320725	    0.053863	    0.374588	   -0.015913	   -0.020450	   -0.036363	   -0.057832	   -0.054851	   -0.112684	   -0.080668	    0.019906	   -0.060762	    0.035126	    0.160911	    0.196036	   -0.023836	    0.016055	   -0.007781	    0.077622	    0.109362	    0.186984	    0.128261	    0.256560	    0.384821	   -0.012835	    0.060163	    0.047328	   -0.024618	    0.027441	    0.002823	   -0.017338	   -0.064689	   -0.082026	   -0.074692	   -0.017621	   -0.092313	   -0.109506	   -0.079726	   -0.189233	   -0.155189	   -0.174063	   -0.329252	   -0.100074	   -0.069972	   -0.170047	   -0.017137	    0.097508	    0.080371	    0.019639	    0.004052	    0.023691
     3.000	0	0	    0	   -0.019629	   -0.014634	   -0.034263	   -0.039220	    0.037568	   -0.001653	   -0.035949	   -0.007503	   -0.043452	   -0.040731	   -0.080321	   -0.121053	    0.104806	    0.102819	    0.207625	    0.231313	    0.114597	    0.345910	    0.015888	    0.006064	    0.021952	   -0.065211	   -0.068832	   -0.134043	   -0.032507	    0.003595	   -0.028912	   -0.056663	    0.054211	   -0.002452	   -0.014972	   -0.022442	   -0.037414	   -0.002520	    0.034989	    0.032469	    0.038651	    0.143583	    0.182235	   -0.001747	    0.023302	    0.021555	   -0.021973	    0.030325	    0.008352	   -0.018263	   -0.066792	   -0.085055	   -0.081567	    0.004144	   -0.077423	   -0.110105	    0.015989	   -0.094116	   -0.063327	   -0.018548	   -0.081875	   -0.064389	    0.002948	   -0.061441	   -0.054508	    0.052843	   -0.001665	    0.020903	   -0.000668	    0.020235
     3.075	0	0	    0	   -0.013314	    0.025165	    0.011850	   -0.039719	    0.037626	   -0.002093	   -0.043988	    0.036828	   -0.007161	   -0.026515	   -0.002752	   -0.029267	   -0.027701	    0.053431	    0.025730	    0.126153	    0.072261	    0.198414	    0.032038	    0.028891	    0.060928	   -0.065795	   -0.071200	   -0.136995	   -0.020864	    0.010957	   -0.009907	   -0.034922	    0.036287	    0.001365	   -0.004269	   -0.009900	   -0.014170	   -0.047844	    0.000107	   -0.047738	   -0.016597	    0.073348	    0.056751	    0.005812	    0.024425	    0.030237	   -0.021013	    0.032068	    0.011055	   -0.016703	   -0.070393	   -0.087096	   -0.046516	   -0.002072	   -0.048588	   -0.063422	    0.020596	   -0.042826	   -0.035352	    0.041589	    0.006237	   -0.045984	    0.028411	   -0.017573	   -0.037994	    0.034263	   -0.003731	    0.025190	   -0.002094	    0.023095
     3.150	0	0	    0	   -0.000500	    0.039581	    0.039081	   -0.032066	    0.042559	    0.010493	   -0.031480	    0.041526	    0.010046	   -0.031032	    0.035464	    0.004432	   -0.071766	   -0.012659	   -0.084425	    0.167325	   -0.000127	    0.167198	    0.029399	    0.044205	    0.073604	   -0.062831	   -0.073612	   -0.136442	   -0.011040	    0.017925	    0.006885	   -0.013348	    0.032086	    0.018738	    0.055867	   -0.002640	    0.053227	   -0.061205	   -0.012170	   -0.073375	   -0.006698	    0.026625	    0.019927	    0.009913	    0.025889	    0.035802	   -0.018349	    0.018616	    0.000266	   -0.010779	   -0.068277	   -0.079056	   -0.029919	    0.018130	   -0.011789	   -0.099908	    0.050482	   -0.049425	   -0.119856	    0.071854	   -0.048002	   -0.033604	    0.050503	    0.016899	   -0.026529	    0.038961	    0.012432	    0.025381	   -0.001366	    0.024015
     3.225	0	0	    0	   -0.061045	    0.031355	   -0.029691	   -0.007978	    0.035831	    0.027853	   -0.015913	   -0.009262	   -0.025175	   -0.020009	    0.005038	   -0.014971	    0.170426	    0.010994	    0.181420	    0.295618	    0.059343	    0.354961	   -0.017561	    0.006991	   -0.010569	   -0.061854	   -0.074875	   -0.136729	   -0.046177	    0.015269	   -0.030908	    0.193162	    0.116313	    0.309475	    0.055613	    0.046758	    0.102371	    0.094276	   -0.014185	    0.080091	    0.088594	    0.095306	    0.183901	    0.017809	    0.025328	    0.043136	   -0.016352	    0.005649	   -0.010703	   -0.012599	   -0.068739	   -0.081337	   -0.043349	    0.032997	   -0.010352	   -0.191300	   -0.032295	   -0.223595	   -0.284771	   -0.102335	   -0.387106	   -0.092588	    0.042324	   -0.050264	   -0.026964	    0.039922	    0.012959	    0.020521	   -0.000943	    0.019578
     3.300	0	0	    0	   -0.079949	   -0.039871	   -0.119820	   -0.005104	    0.035725	    0.030621	   -0.011735	   -0.021199	   -0.032933	   -0.023442	   -0.095618	   -0.119059	    0.177662	    0.072023	    0.249685	    0.309361	    0.050219	    0.359579	   -0.012086	   -0.020148	   -0.032234	   -0.057341	   -0.066931	   -0.124272	   -0.055210	    0.013246	   -0.041964	    0.161979	    0.208309	    0.370288	    0.033777	    0.054912	    0.088689	    0.118945	    0.095684	    0.214629	    0.100642	    0.150669	    0.251310	    0.007769	    0.036513	    0.044282	   -0.013782	    0.004347	   -0.009435	   -0.017074	   -0.071549	   -0.088623	   -0.037123	    0.020626	   -0.016497	   -0.136287	   -0.073246	   -0.209533	   -0.188392	   -0.161020	   -0.349412	   -0.090625	   -0.003111	   -0.093736	   -0.020329	    0.062395	    0.042066	    0.016617	   -0.004070	    0.012547
     3.375	0	0	    0	   -0.057506	   -0.038258	   -0.095764	   -0.003995	    0.043792	    0.039796	    0.004732	   -0.008754	   -0.004022	   -0.009790	   -0.085871	   -0.095661	    0.145320	    0.073908	    0.219228	    0.301300	    0.064303	    0.365603	    0.002955	   -0.003856	   -0.000901	   -0.057150	   -0.068831	   -0.125981	   -0.042270	    0.003429	   -0.038842	    0.101865	    0.147928	    0.249793	    0.054161	    0.022650	    0.076811	    0.053185	    0.079303	    0.132488	    0.085712	    0.115119	    0.200832	    0.014343	    0.028553	    0.042896	   -0.008490	    0.013221	    0.004731	   -0.013124	   -0.073370	   -0.086495	   -0.017864	    0.035926	    0.018062	   -0.118563	    0.001338	   -0.117224	   -0.174906	   -0.043874	   -0.218780	   -0.056127	    0.015642	   -0.040486	   -0.018530	    0.061148	    0.042618	    0.024237	   -0.010540	    0.013696
     3.450	0	0	    0	   -0.072314	   -0.024856	   -0.097170	   -0.021018	    0.040098	    0.019080	   -0.014525	   -0.002903	   -0.017428	   -0.011263	   -0.073993	   -0.085256	    0.161154	    0.072893	    0.234047	    0.309999	    0.054954	    0.364953	   -0.007775	   -0.004907	   -0.012682	   -0.051319	   -0.060227	   -0.111545	   -0.048760	    0.006940	   -0.041820	    0.222112	    0.152703	    0.374815	    0.067842	    0.049667	    0.117509	    0.103784	    0.043011	    0.146795	    0.102921	    0.119824	    0.222745	    0.027992	    0.039616	    0.067608	    0.014367	    0.024447	    0.038814	    0.017194	   -0.063912	   -0.046718	   -0.038518	    0.039353	    0.000835	   -0.227108	   -0.029376	   -0.256483	   -0.333687	   -0.111533	   -0.445219	   -0.079931	    0.033109	   -0.046822	   -0.022280	    0.055525	    0.033245	    0.058462	    0.006971	    0.065434
     3.525	0	0	    0	   -0.089245	   -0.041394	   -0.130639	   -0.022163	    0.033122	    0.010959	   -0.020373	   -0.024576	   -0.044949	   -0.053302	   -0.115849	   -0.169150	    0.209228	    0.076015	    0.285243	    0.317702	    0.049464	    0.367166	   -0.021737	   -0.009033	   -0.030770	   -0.039162	   -0.028192	   -0.067354	   -0.034396	    0.041079	    0.006682	    0.224203	    0.267640	    0.491843	    0.082486	    0.073919	    0.156404	    0.160598	    0.110434	    0.271032	    0.227998	    0.207760	    0.435758	    0.052382	    0.084952	    0.137333	    0.009836	    0.057512	    0.067348	    0.041790	   -0.029825	    0.011964	   -0.061321	    0.025509	   -0.035812	   -0.258476	   -0.119710	   -0.378185	   -0.361872	   -0.215074	   -0.576946	   -0.145792	   -0.021177	   -0.166969	    0.012122	    0.077756	    0.089878	    0.071646	    0.029856	    0.101502
     3.600	0	0	    0	   -0.086582	   -0.041738	   -0.128320	   -0.021369	    0.040004	    0.018634	   -0.006884	   -0.026237	   -0.033121	   -0.041563	   -0.143450	   -0.185013	    0.207374	    0.093612	    0.300986	    0.319315	    0.054683	    0.373997	   -0.006284	   -0.014180	   -0.020464	   -0.040775	    0.008638	   -0.032137	   -0.060724	    0.062657	    0.001934	    0.098228	    0.241295	    0.339523	   -0.001714	    0.065695	    0.063982	    0.144431	    0.127539	    0.271969	    0.156164	    0.281119	    0.437283	    0.020450	    0.089303	    0.109753	    0.016110	    0.075040	    0.091150	    0.038928	   -0.017731	    0.021196	   -0.082695	    0.002280	   -0.080415	   -0.148263	   -0.116345	   -0.264608	   -0.213497	   -0.218090	   -0.431587	   -0.116534	   -0.068502	   -0.185035	   -0.011301	    0.099736	    0.088436	    0.068524	    0.042030	    0.110554
     3.675	0	0	    0	   -0.036007	   -0.036650	   -0.072657	   -0.034674	    0.034854	    0.000180	   -0.046633	    0.001780	   -0.044853	   -0.030325	   -0.103572	   -0.133897	    0.166940	    0.082737	    0.249677	    0.290298	    0.119681	    0.409979	    0.031058	    0.000115	    0.031173	   -0.047938	    0.003895	   -0.044043	   -0.022060	    0.008024	   -0.014036	   -0.025811	    0.109605	    0.083795	   -0.005501	   -0.034643	   -0.040144	    0.029663	    0.075764	    0.105427	    0.077190	    0.166531	    0.243721	    0.019531	    0.052426	    0.071957	    0.019348	    0.084332	    0.103680	    0.044896	   -0.015871	    0.029026	   -0.056127	    0.014789	   -0.041339	   -0.075824	    0.003289	   -0.072535	   -0.044666	   -0.037701	   -0.082367	   -0.062744	   -0.006333	   -0.069077	   -0.041694	    0.065741	    0.024047	    0.075612	    0.045313	    0.120925
     3.750	0	0	    0	   -0.003510	    0.029631	    0.026121	   -0.035998	    0.048771	    0.012773	   -0.043250	    0.056073	    0.012823	   -0.016417	   -0.001707	   -0.018124	   -0.026661	    0.074756	    0.048096	    0.135547	    0.079539	    0.215086	    0.058975	    0.034221	    0.093195	   -0.041685	   -0.005801	   -0.047485	    0.001506	    0.029512	    0.031018	   -0.034078	    0.061865	    0.027787	   -0.001985	    0.004508	    0.002523	   -0.034855	    0.018031	   -0.016824	   -0.019356	    0.105124	    0.085768	    0.037530	    0.043561	    0.081091	    0.017974	    0.089876	    0.107849	    0.047852	   -0.010846	    0.037006	   -0.025477	    0.019831	   -0.005646	   -0.037294	    0.043870	    0.006576	   -0.005086	    0.061683	    0.056597	   -0.023194	    0.043702	    0.020509	   -0.023286	    0.042898	    0.019612	    0.076405	    0.055914	    0.132318
     3.825	0	0	    0	    0.009657	    0.048439	    0.058096	   -0.041187	    0.057058	    0.015871	   -0.072508	    0.082837	    0.010329	   -0.037432	    0.059030	    0.021599	   -0.104177	   -0.013678	   -0.117855	    0.052342	    0.038418	    0.090759	    0.053187	    0.052997	    0.106185	   -0.053608	   -0.001813	   -0.055421	    0.001424	    0.036441	    0.037865	   -0.051709	    0.046191	   -0.005518	   -0.008769	    0.009817	    0.001048	   -0.064611	    0.000613	   -0.063998	   -0.044060	    0.049191	    0.005131	    0.018300	    0.049890	    0.068190	   -0.026753	    0.056696	    0.029943	    0.028179	   -0.007915	    0.020263	   -0.018323	    0.033641	    0.015318	   -0.027505	    0.072625	    0.045120	   -0.006854	    0.086743	    0.079889	   -0.010857	    0.066494	    0.055637	   -0.013418	    0.047903	    0.034485	    0.027168	    0.029118	    0.056286
     3.900	0	0	    0	    0.008681	    0.061903	    0.070584	   -0.043799	    0.058229	    0.014430	   -0.031397	    0.057124	    0.025727	   -0.027343	    0.062003	    0.034660	   -0.097674	   -0.054132	   -0.151806	    0.106407	   -0.028113	    0.078294	    0.026993	    0.043035	    0.070028	   -0.074472	   -0.038325	   -0.112798	   -0.007978	    0.037233	    0.029255	   -0.035169	    0.040866	    0.005697	    0.049264	    0.014207	    0.063470	   -0.068035	   -0.004299	   -0.072333	   -0.037998	    0.020155	   -0.017843	    0.013602	    0.027761	    0.041363	   -0.018838	    0.015761	   -0.003077	    0.007970	   -0.036473	   -0.028503	   -0.018169	    0.036706	    0.018537	   -0.080479	    0.075396	   -0.005083	   -0.110258	    0.084822	   -0.025436	   -0.027007	    0.077254	    0.050247	   -0.022310	    0.054741	    0.032431	   -0.002228	   -0.013712	   -0.015940
     3.975	0	0	    0	   -0.036502	    0.046350	    0.009848	   -0.022303	    0.047664	    0.025361	   -0.025542	    0.002412	   -0.023130	   -0.012672	    0.014731	    0.002059	    0.151713	   -0.007406	    0.144307	    0.287054	    0.063615	    0.350670	   -0.013190	    0.011716	   -0.001474	   -0.072757	   -0.058727	   -0.131484	   -0.041776	    0.023264	   -0.018512	    0.162618	    0.116346	    0.278964	    0.060883	    0.051793	    0.112676	    0.063574	   -0.016362	    0.047212	    0.083292	    0.072103	    0.155395	    0.013050	    0.021545	    0.034595	   -0.018069	    0.011383	   -0.006686	    0.002631	   -0.052145	   -0.049513	   -0.037791	    0.037245	   -0.000546	   -0.173658	   -0.004055	   -0.177713	   -0.262715	   -0.074820	   -0.337535	   -0.090775	    0.067480	   -0.023294	   -0.035613	    0.044049	    0.008436	    0.001092	   -0.022553	   -0.021461
     4.050	0	0	    0	   -0.054996	   -0.021598	   -0.076594	   -0.014408	    0.044706	    0.030298	   -0.004135	   -0.018975	   -0.023110	   -0.007232	   -0.084383	   -0.091615	    0.160682	    0.080988	    0.241670	    0.290068	    0.062745	    0.352813	    0.010055	   -0.017874	   -0.007819	   -0.068423	   -0.061468	   -0.129892	   -0.047060	    0.011035	   -0.036025	    0.071807	    0.200136	    0.271943	    0.020075	    0.044457	    0.064532	    0.086976	    0.084738	    0.171714	    0.045275	    0.125181	    0.170456	    0.013037	    0.020488	    0.033525	   -0.016081	    0.014112	   -0.001969	    0.001565	   -0.059532	   -0.057967	   -0.027931	    0.026332	   -0.001599	   -0.078738	   -0.022758	   -0.101496	   -0.104143	   -0.096132	   -0.200274	   -0.087550	    0.020042	   -0.067508	   -0.032558	    0.050858	    0.018300	    0.017927	   -0.024647	   -0.006720
     4.125	0	0	    0	   -0.005877	   -0.002945	   -0.008822	   -0.033526	    0.066032	    0.032507	   -0.029658	    0.038205	    0.008547	   -0.005623	   -0.035326	   -0.040949	    0.075267	    0.111136	    0.186402	    0.188341	    0.114353	    0.302693	    0.046444	    0.012257	    0.058702	   -0.063829	   -0.064018	   -0.127847	   -0.019906	    0.005699	   -0.014207	   -0.019192	    0.111271	    0.092079	   -0.006337	   -0.013232	   -0.019569	   -0.051711	    0.053205	    0.001494	    0.020176	    0.115535	    0.135711	    0.022855	    0.023198	    0.046054	    0.011738	    0.019877	    0.031615	    0.020364	   -0.059523	   -0.039159	   -0.013541	    0.036313	    0.022772	   -0.026199	    0.065960	    0.039761	   -0.019624	    0.044252	    0.024628	   -0.045598	    0.036057	   -0.009541	   -0.025494	    0.050215	    0.024721	    0.052895	   -0.000862	    0.052032
     4.200	0	0	    0	    0.006454	    0.049094	    0.055549	   -0.047151	    0.071113	    0.023962	   -0.046426	    0.074464	    0.028038	   -0.034535	    0.034108	   -0.000427	   -0.059344	    0.043539	   -0.015805	    0.108816	    0.056619	    0.165435	    0.058652	    0.042324	    0.100976	   -0.048278	   -0.045746	   -0.094024	   -0.008408	    0.024109	    0.015701	   -0.050249	    0.065746	    0.015497	   -0.014384	    0.002203	   -0.012181	   -0.080116	   -0.011091	   -0.091208	   -0.034006	    0.066820	    0.032814	    0.030665	    0.038320	    0.068984	    0.010864	    0.063502	    0.074366	    0.053649	   -0.021842	    0.031807	   -0.020621	    0.043377	    0.022756	   -0.033344	    0.097583	    0.064239	   -0.033257	    0.089737	    0.056480	   -0.036976	    0.066505	    0.029529	   -0.028589	    0.048074	    0.019486	    0.074979	    0.036450	    0.111428
     4.275	0	0	    0	   -0.003722	    0.058157	    0.054435	   -0.045684	    0.063771	    0.018088	   -0.015161	    0.049472	    0.034310	   -0.023156	    0.044329	    0.021173	   -0.018096	   -0.014925	   -0.033022	    0.238157	    0.031476	    0.269633	    0.029508	    0.039916	    0.069424	   -0.046108	   -0.013230	   -0.059339	   -0.025140	    0.031635	    0.006495	    0.008257	    0.044044	    0.052301	    0.032084	    0.024237	    0.056321	   -0.065198	   -0.024906	   -0.090104	    0.015394	    0.042402	    0.057796	    0.018152	    0.042375	    0.060527	   -0.019012	    0.064727	    0.045715	    0.041648	   -0.001308	    0.040340	   -0.032952	    0.039196	    0.006244	   -0.123429	    0.077027	   -0.046402	   -0.184782	    0.055079	   -0.129703	   -0.060777	    0.072554	    0.011778	   -0.032005	    0.046169	    0.014164	    0.044606	    0.032898	    0.077505
     4.350	0	0	    0	   -0.058293	    0.024728	   -0.033565	   -0.013094	    0.062442	    0.049348	   -0.023323	    0.003287	   -0.020036	   -0.026995	   -0.024008	   -0.051003	    0.143487	    0.056890	    0.200376	    0.306410	    0.052853	    0.359263	   -0.006207	    0.002801	   -0.003405	   -0.069915	   -0.018219	   -0.088134	   -0.041779	    0.017989	   -0.023790	    0.202986	    0.147037	    0.350023	    0.067027	    0.061723	    0.128750	    0.093365	    0.025288	    0.118653	    0.103917	    0.096765	    0.200682	    0.039674	    0.046833	    0.086507	   -0.021946	    0.028599	    0.006653	    0.031796	   -0.026902	    0.004893	   -0.044979	    0.029587	   -0.015392	   -0.201636	   -0.018740	   -0.220376	   -0.315961	   -0.109774	   -0.425735	   -0.102425	    0.041560	   -0.060864	   -0.018580	    0.055348	    0.036768	    0.016495	    0.005499	    0.021994
     4.425	0	0	    0	   -0.073720	   -0.019082	   -0.092802	   -0.009039	    0.056952	    0.047913	   -0.018950	   -0.011910	   -0.030860	   -0.042585	   -0.104993	   -0.147578	    0.200156	    0.088891	    0.289047	    0.335882	    0.065046	    0.400928	   -0.047895	   -0.021800	   -0.069695	   -0.057685	   -0.039488	   -0.097172	   -0.035042	    0.033984	   -0.001057	    0.255623	    0.259892	    0.515515	    0.082951	    0.077877	    0.160828	    0.146866	    0.118599	    0.265465	    0.224377	    0.214755	    0.439131	    0.033498	    0.067121	    0.100619	   -0.027046	   -0.017004	   -0.044050	    0.018825	   -0.042603	   -0.023778	   -0.036082	    0.027949	   -0.008132	   -0.237449	   -0.085904	   -0.323353	   -0.343244	   -0.191193	   -0.534437	   -0.125846	    0.002018	   -0.123827	    0.027202	    0.089533	    0.116735	   -0.001791	   -0.021501	   -0.023292
     4.500	0	0	    0	   -0.075039	   -0.031970	   -0.107009	   -0.000894	    0.058221	    0.057327	   -0.012712	   -0.006794	   -0.019505	   -0.042335	   -0.130594	   -0.172929	    0.218081	    0.097277	    0.315358	    0.346536	    0.074371	    0.420907	   -0.053687	   -0.052889	   -0.106576	   -0.049096	   -0.039463	   -0.088560	   -0.034661	    0.050165	    0.015504	    0.212671	    0.258514	    0.471185	    0.069045	    0.100425	    0.169470	    0.149337	    0.124571	    0.273908	    0.241267	    0.290563	    0.531830	    0.024387	    0.066335	    0.090722	   -0.010621	   -0.028211	   -0.038832	    0.012175	   -0.052844	   -0.040670	   -0.064469	    0.020794	   -0.043675	   -0.227066	   -0.113390	   -0.340456	   -0.331680	   -0.227727	   -0.559407	   -0.131840	   -0.037714	   -0.169555	    0.026474	    0.121753	    0.148227	    0.020791	   -0.025247	   -0.004456
     4.575	0	0	    0	   -0.063295	   -0.035339	   -0.098634	   -0.017532	    0.059764	    0.042232	   -0.004816	   -0.005343	   -0.010159	   -0.020914	   -0.124314	   -0.145228	    0.202989	    0.102269	    0.305257	    0.335919	    0.074449	    0.410368	    0.016729	   -0.020456	   -0.003728	   -0.033399	   -0.039039	   -0.072438	   -0.042665	    0.032594	   -0.010070	    0.060251	    0.197377	    0.257628	    0.003837	    0.035260	    0.039096	    0.106959	    0.131221	    0.238180	    0.133414	    0.266193	    0.399607	    0.039258	    0.061764	    0.101022	    0.029904	    0.049111	    0.079015	    0.065607	   -0.048117	    0.017490	   -0.048627	    0.002818	   -0.045809	   -0.092589	   -0.046758	   -0.139348	   -0.145867	   -0.150515	   -0.296382	   -0.081374	   -0.034329	   -0.115702	   -0.003650	    0.108066	    0.104415	    0.088468	    0.026056	    0.114524
     4.650	0	0	    0	   -0.022018	   -0.004201	   -0.026219	   -0.021016	    0.058959	    0.037943	   -0.016805	    0.001123	   -0.015682	   -0.015885	   -0.079351	   -0.095236	    0.156233	    0.111411	    0.267644	    0.345190	    0.109085	    0.454275	    0.032874	    0.012492	    0.045366	   -0.019344	    0.002424	   -0.016920	   -0.006578	    0.031938	    0.025360	    0.014438	    0.101094	    0.115532	    0.042674	   -0.000423	    0.042251	    0.036492	    0.060978	    0.097470	    0.113328	    0.170641	    0.283969	    0.043746	    0.053364	    0.097110	    0.008690	    0.095808	    0.104498	    0.068704	    0.002830	    0.071534	   -0.041984	    0.024718	   -0.017265	   -0.110631	    0.026788	   -0.083844	   -0.166526	   -0.012039	   -0.178565	   -0.045710	    0.029482	   -0.016228	   -0.022906	    0.064000	    0.041094	    0.071048	    0.062137	    0.133185
     4.725	0	0	    0	   -0.047044	    0.014528	   -0.032516	   -0.003477	    0.057109	    0.053632	   -0.004914	    0.002167	   -0.002747	   -0.008361	   -0.071884	   -0.080245	    0.191367	    0.098055	    0.289422	    0.326919	    0.095834	    0.422753	   -0.005244	    0.007828	    0.002585	   -0.063974	    0.011804	   -0.052170	   -0.043137	    0.039810	   -0.003328	    0.151415	    0.113023	    0.264438	    0.066277	    0.047550	    0.113827	    0.116370	    0.039775	    0.156145	    0.120489	    0.170494	    0.290984	    0.016459	    0.052581	    0.069040	   -0.031550	    0.036153	    0.004603	    0.025342	   -0.016173	    0.009169	   -0.041886	    0.031691	   -0.010195	   -0.195280	   -0.017987	   -0.213267	   -0.326694	   -0.113668	   -0.440362	   -0.074780	    0.050440	   -0.024340	   -0.015738	    0.056761	    0.041023	    0.021281	    0.022454	    0.043735
     4.800	0	0	    0	   -0.077879	   -0.025284	   -0.103163	   -0.008212	    0.062558	    0.054346	   -0.008711	   -0.003128	   -0.011840	   -0.024982	   -0.106672	   -0.131653	    0.216290	    0.093495	    0.309784	    0.334994	    0.071793	    0.406787	   -0.038494	   -0.018942	   -0.057436	   -0.060225	   -0.039452	   -0.099677	   -0.053431	    0.029647	   -0.023784	    0.192637	    0.215011	    0.407648	    0.074046	    0.083385	    0.157431	    0.164846	    0.113171	    0.278017	    0.189822	    0.211972	    0.401793	    0.008831	    0.050007	    0.058837	   -0.016144	   -0.004690	   -0.020835	    0.015684	   -0.040659	   -0.024975	   -0.043274	    0.027654	   -0.015620	   -0.202370	   -0.078024	   -0.280394	   -0.326936	   -0.200683	   -0.527619	   -0.105860	   -0.003504	   -0.109364	    0.017356	    0.093033	    0.110389	    0.016078	   -0.003245	    0.012832
     4.875	0	0	    0	   -0.076761	   -0.036350	   -0.113111	   -0.011580	    0.063192	    0.051612	   -0.001344	   -0.005265	   -0.006609	   -0.013731	   -0.117418	   -0.131149	    0.200874	    0.107732	    0.308606	    0.329250	    0.073937	    0.403187	    0.011205	   -0.030695	   -0.019491	   -0.060474	   -0.041957	   -0.102431	   -0.062505	    0.025658	   -0.036847	    0.077691	    0.209746	    0.287437	    0.015444	    0.048520	    0.063964	    0.132596	    0.137713	    0.270309	    0.112772	    0.235378	    0.348150	    0.026111	    0.042531	    0.068642	    0.014070	    0.016620	    0.030689	    0.014919	   -0.058293	   -0.043373	   -0.041858	    0.029269	   -0.012590	   -0.097888	   -0.034405	   -0.132293	   -0.155290	   -0.137491	   -0.292781	   -0.077011	   -0.005992	   -0.083002	   -0.020755	    0.106716	    0.085961	    0.067821	   -0.002009	    0.065812
     4.950	0	0	    0	   -0.035727	   -0.016510	   -0.052237	   -0.022897	    0.059841	    0.036944	   -0.023269	    0.008601	   -0.014668	   -0.014601	   -0.085549	   -0.100150	    0.158109	    0.111949	    0.270057	    0.329893	    0.116295	    0.446189	    0.031844	    0.010129	    0.041973	   -0.037680	   -0.024722	   -0.062402	   -0.017613	    0.026531	    0.008918	    0.009372	    0.108792	    0.118163	    0.030224	    0.004067	    0.034291	    0.036644	    0.063024	    0.099668	    0.096975	    0.166973	    0.263948	    0.040247	    0.048980	    0.089227	   -0.005488	    0.086204	    0.080716	    0.060203	   -0.011898	    0.048304	   -0.047619	    0.031554	   -0.016066	   -0.094679	    0.033474	   -0.061205	   -0.139181	   -0.007052	   -0.146233	   -0.053199	    0.032865	   -0.020334	   -0.025487	    0.064249	    0.038762	    0.062947	    0.055575	    0.118522
     5.025	0	0	    0	   -0.039737	    0.007361	   -0.032376	   -0.000593	    0.059327	    0.058734	   -0.003989	    0.003457	   -0.000532	   -0.003910	   -0.063764	   -0.067674	    0.176421	    0.100932	    0.277353	    0.344667	    0.109954	    0.454621	    0.007574	    0.007041	    0.014614	   -0.069754	   -0.007155	   -0.076909	   -0.027242	    0.039592	    0.012350	    0.089359	    0.103535	    0.192894	    0.066285	    0.035701	    0.101985	    0.096078	    0.027623	    0.123701	    0.128476	    0.160186	    0.288662	    0.023207	    0.046445	    0.069652	   -0.016314	    0.024538	    0.008224	    0.025536	   -0.025550	   -0.000014	   -0.035835	    0.027812	   -0.008023	   -0.147502	    0.006508	   -0.140993	   -0.282345	   -0.083165	   -0.365510	   -0.057478	    0.049894	   -0.007584	   -0.007618	    0.061067	    0.053449	    0.031675	    0.010102	    0.041777
     5.100	0	0	    0	   -0.061249	   -0.006648	   -0.067898	    0.004585	    0.064631	    0.069216	   -0.002218	   -0.003735	   -0.005954	   -0.002656	   -0.085575	   -0.088231	    0.206925	    0.099468	    0.306394	    0.349483	    0.074399	    0.423883	    0.001657	   -0.011415	   -0.009758	   -0.054926	   -0.040632	   -0.095559	   -0.037279	    0.029709	   -0.007570	    0.155789	    0.193015	    0.348804	    0.070502	    0.087026	    0.157529	    0.162047	    0.105836	    0.267882	    0.176282	    0.180562	    0.356844	    0.027854	    0.048921	    0.076774	    0.002283	    0.014333	    0.016617	    0.025966	   -0.043600	   -0.017634	   -0.025997	    0.034483	    0.008487	   -0.151407	   -0.049071	   -0.200478	   -0.272357	   -0.189444	   -0.461800	   -0.088684	    0.019768	   -0.068916	    0.014266	    0.077134	    0.091400	    0.044506	   -0.003606	    0.040900
     5.175	0	0	    0	   -0.043327	   -0.024451	   -0.067778	   -0.002139	    0.069466	    0.067328	    0.002404	    0.003758	    0.006162	    0.009549	   -0.093545	   -0.083996	    0.196505	    0.104276	    0.300780	    0.355098	    0.074343	    0.429441	    0.032150	   -0.003164	    0.028986	   -0.044154	   -0.033130	   -0.077284	   -0.024010	    0.023066	   -0.000944	    0.046862	    0.167395	    0.214257	    0.042134	    0.043439	    0.085572	    0.112623	    0.125011	    0.237634	    0.116168	    0.187105	    0.303273	    0.040213	    0.051870	    0.092082	    0.020740	    0.057643	    0.078383	    0.059755	   -0.033783	    0.025972	   -0.013004	    0.040818	    0.027815	   -0.079708	   -0.002986	   -0.082694	   -0.128515	   -0.100645	   -0.229160	   -0.052679	    0.008246	   -0.044433	    0.001606	    0.086153	    0.087759	    0.076639	    0.024576	    0.101215
     5.250	0	0	    0	   -0.021474	    0.004948	   -0.016526	   -0.010986	    0.067057	    0.056071	   -0.001224	    0.009486	    0.008262	    0.002404	   -0.067987	   -0.065583	    0.170042	    0.118581	    0.288623	    0.349617	    0.112827	    0.462444	    0.039327	    0.011440	    0.050767	   -0.029621	   -0.009860	   -0.039481	   -0.010943	    0.032169	    0.021226	    0.043449	    0.094868	    0.138317	    0.071141	    0.034803	    0.105945	    0.060527	    0.063458	    0.123985	    0.118729	    0.157618	    0.276347	    0.049032	    0.045708	    0.094740	    0.009739	    0.080834	    0.090573	    0.062101	   -0.005457	    0.056644	   -0.018168	    0.038862	    0.020694	   -0.103140	    0.038059	   -0.065081	   -0.185158	   -0.019918	   -0.205076	   -0.037398	    0.041948	    0.004551	   -0.006763	    0.072262	    0.065500	    0.068110	    0.045854	    0.113965
     5.325	0	0	    0	   -0.052901	    0.005508	   -0.047393	    0.002302	    0.062205	    0.064507	    0.006511	    0.008062	    0.014573	    0.001881	   -0.076192	   -0.074311	    0.193177	    0.107852	    0.301029	    0.336348	    0.086215	    0.422563	    0.003723	    0.004889	    0.008613	   -0.054571	    0.003314	   -0.051257	   -0.034200	    0.033204	   -0.000996	    0.160499	    0.148600	    0.309098	    0.073829	    0.065230	    0.139058	    0.122875	    0.062401	    0.185277	    0.120823	    0.154836	    0.275659	    0.033380	    0.052544	    0.085924	   -0.014136	    0.048735	    0.034599	    0.034476	   -0.016657	    0.017819	   -0.025033	    0.039581	    0.014548	   -0.165683	   -0.018015	   -0.183698	   -0.286302	   -0.121953	   -0.408255	   -0.069433	    0.047305	   -0.022128	   -0.003345	    0.065870	    0.062525	    0.035492	    0.024454	    0.059946
     5.400	0	0	    0	   -0.067720	   -0.026235	   -0.093955	    0.005511	    0.066045	    0.071556	    0.008355	    0.005728	    0.014083	   -0.002815	   -0.101194	   -0.104009	    0.207009	    0.100158	    0.307168	    0.342124	    0.074080	    0.416204	   -0.007870	   -0.011330	   -0.019200	   -0.058982	   -0.028046	   -0.087027	   -0.045685	    0.032660	   -0.013025	    0.167312	    0.202580	    0.369892	    0.054065	    0.063702	    0.117767	    0.152478	    0.115898	    0.268377	    0.158015	    0.196088	    0.354104	    0.030861	    0.061624	    0.092484	    0.003074	    0.021194	    0.024268	    0.022834	   -0.041076	   -0.018242	   -0.029115	    0.033161	    0.004046	   -0.161037	   -0.043625	   -0.204662	   -0.270659	   -0.155578	   -0.426237	   -0.078310	    0.011477	   -0.066833	    0.006950	    0.086110	    0.093060	    0.043704	    0.000908	    0.044612
     5.475	0	0	    0	   -0.065304	   -0.025948	   -0.091252	    0.005274	    0.073720	    0.078994	    0.006439	    0.012650	    0.019089	   -0.008842	   -0.091064	   -0.099906	    0.213579	    0.108359	    0.321938	    0.342254	    0.079790	    0.422045	    0.000124	   -0.009477	   -0.009354	   -0.045514	   -0.028011	   -0.073525	   -0.037623	    0.039345	    0.001722	    0.169874	    0.201473	    0.371348	    0.043907	    0.047464	    0.091371	    0.143718	    0.109758	    0.253476	    0.172966	    0.203929	    0.376894	    0.045416	    0.070513	    0.115929	    0.028146	    0.060891	    0.089037	    0.052806	   -0.038080	    0.014726	   -0.031761	    0.035980	    0.004219	   -0.180612	   -0.046889	   -0.227500	   -0.282387	   -0.156295	   -0.438683	   -0.088207	    0.003898	   -0.084309	    0.014154	    0.089293	    0.103447	    0.075220	    0.028607	    0.103826
     5.550	0	0	    0	   -0.067727	   -0.019114	   -0.086840	    0.000884	    0.071803	    0.072687	    0.003960	    0.010486	    0.014447	   -0.013399	   -0.089722	   -0.103121	    0.206109	    0.121026	    0.327135	    0.334212	    0.082543	    0.416755	    0.009270	   -0.003109	    0.006160	   -0.019626	    0.001987	   -0.017639	   -0.038788	    0.046112	    0.007324	    0.126386	    0.213798	    0.340184	    0.013312	    0.043934	    0.057246	    0.135057	    0.112944	    0.248001	    0.156877	    0.221782	    0.378658	    0.033363	    0.078654	    0.112017	    0.033863	    0.096245	    0.130107	    0.065972	   -0.008776	    0.057197	   -0.029120	    0.035452	    0.006332	   -0.130140	   -0.060920	   -0.191060	   -0.205696	   -0.158685	   -0.364382	   -0.082493	   -0.016343	   -0.098835	    0.018729	    0.101854	    0.120584	    0.079175	    0.052462	    0.131638
     5.625	0	0	    0	   -0.042973	   -0.019348	   -0.062321	   -0.025355	    0.069506	    0.044151	   -0.028677	    0.033762	    0.005085	   -0.028140	   -0.066351	   -0.094492	    0.156864	    0.115231	    0.272095	    0.338474	    0.111404	    0.449878	    0.028672	    0.007144	    0.035817	   -0.032583	    0.015223	   -0.017360	   -0.030635	    0.023782	   -0.006853	    0.024634	    0.138375	    0.163009	   -0.008646	   -0.007738	   -0.016384	    0.037735	    0.103357	    0.141092	    0.111040	    0.177210	    0.288250	    0.026711	    0.054565	    0.081276	    0.037224	    0.095302	    0.132526	    0.061153	   -0.003957	    0.057196	   -0.015905	    0.047989	    0.032084	   -0.060280	    0.022436	   -0.037844	   -0.077724	   -0.041320	   -0.119044	   -0.046278	    0.005878	   -0.040401	   -0.001904	    0.091815	    0.089912	    0.085187	    0.046548	    0.131735
     5.700	0	0	    0	   -0.020484	    0.021710	    0.001226	   -0.026971	    0.068226	    0.041255	   -0.021654	    0.051215	    0.029562	   -0.021249	   -0.014530	   -0.035779	    0.052567	    0.118286	    0.170853	    0.296900	    0.106275	    0.403175	    0.040571	    0.025483	    0.066053	   -0.022708	    0.007551	   -0.015157	   -0.012499	    0.037551	    0.025052	    0.021819	    0.080442	    0.102260	    0.035611	    0.007829	    0.043440	   -0.003924	    0.032948	    0.029024	    0.062909	    0.130599	    0.193508	    0.043565	    0.042321	    0.085886	    0.040855	    0.104057	    0.144912	    0.069415	    0.000581	    0.069995	   -0.027809	    0.049473	    0.021663	   -0.109254	    0.066759	   -0.042495	   -0.163784	    0.042666	   -0.121118	   -0.044374	    0.047320	    0.002947	   -0.009304	    0.069584	    0.060279	    0.091228	    0.060828	    0.152056
     5.775	0	0	    0	   -0.059122	    0.016997	   -0.042125	   -0.004922	    0.064184	    0.059262	   -0.000352	    0.023632	    0.023280	   -0.012819	   -0.015921	   -0.028740	    0.168811	    0.087214	    0.256025	    0.321364	    0.093343	    0.414708	    0.023593	    0.013941	    0.037534	   -0.021645	    0.017881	   -0.003764	   -0.026123	    0.040408	    0.014284	    0.169130	    0.154826	    0.323956	    0.059602	    0.071373	    0.130975	    0.096521	    0.019542	    0.116062	    0.105693	    0.148935	    0.254628	    0.044156	    0.055881	    0.100036	    0.027288	    0.106028	    0.133315	    0.066300	    0.004025	    0.070326	   -0.028570	    0.046053	    0.017483	   -0.152581	   -0.020732	   -0.173313	   -0.240969	   -0.112355	   -0.353324	   -0.069656	    0.036683	   -0.032973	    0.000577	    0.070595	    0.071172	    0.079915	    0.058038	    0.137953
     5.850	0	0	    0	   -0.051155	   -0.019733	   -0.070889	   -0.001575	    0.071552	    0.069977	    0.011822	    0.020234	    0.032056	    0.004958	   -0.054990	   -0.050032	    0.164159	    0.116131	    0.280290	    0.336847	    0.090009	    0.426856	    0.038820	    0.007113	    0.045933	   -0.043561	    0.020911	   -0.022650	   -0.026758	    0.036320	    0.009562	    0.086188	    0.190296	    0.276484	    0.043560	    0.053283	    0.096844	    0.088886	    0.103541	    0.192427	    0.106456	    0.143156	    0.249613	    0.041077	    0.053091	    0.094168	    0.026893	    0.089986	    0.116879	    0.057514	   -0.012533	    0.044980	   -0.004325	    0.042300	    0.037976	   -0.061225	   -0.006420	   -0.067645	   -0.086049	   -0.077363	   -0.163412	   -0.046295	    0.015896	   -0.030399	    0.013613	    0.075230	    0.088844	    0.081241	    0.037676	    0.118917
     5.925	0	0	    0	   -0.012070	   -0.000461	   -0.012531	   -0.016356	    0.079140	    0.062784	   -0.019515	    0.053443	    0.033928	    0.003346	   -0.014869	   -0.011524	    0.070005	    0.136048	    0.206053	    0.222291	    0.141417	    0.363708	    0.064233	    0.024431	    0.088663	   -0.036977	    0.007861	   -0.029117	   -0.006682	    0.032685	    0.026003	    0.006216	    0.122289	    0.128505	    0.015220	    0.016226	    0.031446	    0.001808	    0.044533	    0.046340	    0.053067	    0.156902	    0.209969	    0.049521	    0.043958	    0.093479	    0.041196	    0.099779	    0.140975	    0.066926	   -0.012140	    0.054786	    0.002321	    0.059660	    0.061981	   -0.025038	    0.072557	    0.047520	   -0.016752	    0.041997	    0.025245	   -0.010699	    0.044380	    0.033681	    0.009564	    0.074729	    0.084293	    0.097598	    0.049203	    0.146801
     6.000	0	0	    0	   -0.004247	    0.037421	    0.033174	   -0.022926	    0.081912	    0.058986	   -0.027513	    0.078532	    0.051018	   -0.007774	    0.049199	    0.041426	   -0.034412	    0.066276	    0.031863	    0.170002	    0.081181	    0.251183	    0.076847	    0.040041	    0.116888	   -0.014909	    0.010409	   -0.004500	   -0.000651	    0.040090	    0.039439	   -0.013833	    0.077153	    0.063320	    0.018314	    0.025411	    0.043725	   -0.025265	    0.032953	    0.007687	    0.007699	    0.095557	    0.103256	    0.059339	    0.043845	    0.103184	    0.038394	    0.106399	    0.144793	    0.072524	    0.007245	    0.079770	   -0.005779	    0.056570	    0.050791	   -0.029192	    0.092030	    0.062837	   -0.021612	    0.084833	    0.063221	   -0.007883	    0.070827	    0.062945	    0.005495	    0.066637	    0.072132	    0.092023	    0.065803	    0.157827
     6.075	0	0	    0	   -0.010531	    0.042530	    0.031999	   -0.016815	    0.079563	    0.062748	   -0.007694	    0.073611	    0.065918	   -0.005394	    0.059481	    0.054087	   -0.025529	    0.021413	   -0.004116	    0.241753	    0.055982	    0.297735	    0.056528	    0.049392	    0.105921	   -0.031318	    0.018887	   -0.012431	   -0.004366	    0.045618	    0.041252	    0.033871	    0.073795	    0.107666	    0.039717	    0.041141	    0.080858	   -0.031826	    0.019403	   -0.012423	    0.038947	    0.077768	    0.116716	    0.045258	    0.052281	    0.097538	    0.010973	    0.099434	    0.110407	    0.055102	    0.004545	    0.059647	   -0.007967	    0.059741	    0.051774	   -0.101378	    0.093775	   -0.007604	   -0.131239	    0.083187	   -0.048051	   -0.022401	    0.076653	    0.054253	    0.000367	    0.063661	    0.064028	    0.073352	    0.048886	    0.122239
     6.150	0	0	    0	   -0.070075	    0.017199	   -0.052877	   -0.019177	    0.068961	    0.049784	   -0.010079	    0.025456	    0.015376	   -0.015885	    0.012992	   -0.002893	    0.140308	    0.054481	    0.194789	    0.308812	    0.085858	    0.394670	    0.017473	    0.019615	    0.037088	   -0.049841	    0.004798	   -0.045043	   -0.026521	    0.047349	    0.020827	    0.225744	    0.173051	    0.398794	    0.073686	    0.073445	    0.147131	    0.076937	   -0.006398	    0.070539	    0.086580	    0.142596	    0.229176	    0.053491	    0.065667	    0.119159	    0.015903	    0.076534	    0.092437	    0.046871	   -0.017329	    0.029542	   -0.037418	    0.063150	    0.025732	   -0.207175	   -0.019342	   -0.226517	   -0.301080	   -0.087586	   -0.388666	   -0.084670	    0.054242	   -0.030428	   -0.014029	    0.069812	    0.055784	    0.077593	    0.031483	    0.109076
     6.225	0	0	    0	   -0.077449	   -0.027759	   -0.105209	   -0.020655	    0.064290	    0.043635	   -0.015420	    0.011575	   -0.003845	   -0.021391	   -0.076102	   -0.097493	    0.186351	    0.099021	    0.285371	    0.315349	    0.083356	    0.398706	    0.007652	    0.011337	    0.018990	   -0.035371	    0.006403	   -0.028968	   -0.032535	    0.069374	    0.036838	    0.224540	    0.264302	    0.488842	    0.072533	    0.098015	    0.170548	    0.120697	    0.096123	    0.216820	    0.141274	    0.193671	    0.334945	    0.040730	    0.093888	    0.134618	    0.019280	    0.089487	    0.108768	    0.060959	   -0.015288	    0.045671	   -0.033190	    0.038636	    0.005446	   -0.198180	   -0.073198	   -0.271378	   -0.287994	   -0.163366	   -0.451360	   -0.101303	    0.008000	   -0.093303	   -0.005481	    0.078687	    0.073206	    0.079414	    0.039777	    0.119191
     6.300	0	0	    0	   -0.079637	   -0.031735	   -0.111371	   -0.018961	    0.058767	    0.039806	   -0.008073	    0.010529	    0.002456	   -0.004052	   -0.083485	   -0.087537	    0.179314	    0.110449	    0.289763	    0.309916	    0.083872	    0.393788	    0.029100	    0.008616	    0.037717	   -0.024410	    0.021760	   -0.002650	   -0.061462	    0.049103	   -0.012359	    0.143897	    0.233724	    0.377620	    0.046022	    0.073222	    0.119244	    0.112562	    0.114096	    0.226659	    0.101961	    0.187430	    0.289391	    0.048849	    0.075088	    0.123936	    0.041203	    0.095227	    0.136430	    0.075603	   -0.000510	    0.075093	   -0.019553	    0.046474	    0.026921	   -0.112511	   -0.034248	   -0.146759	   -0.169907	   -0.116543	   -0.286450	   -0.079641	   -0.000484	   -0.080125	    0.001841	    0.082200	    0.084042	    0.088834	    0.048308	    0.137142
     6.375	0	0	    0	   -0.062480	   -0.025010	   -0.087489	   -0.020881	    0.065995	    0.045114	   -0.006065	    0.021319	    0.015254	   -0.000712	   -0.056029	   -0.056741	    0.142783	    0.109859	    0.252642	    0.315348	    0.105987	    0.421335	    0.041139	    0.017012	    0.058151	   -0.018308	    0.031567	    0.013259	   -0.046385	    0.028887	   -0.017498	    0.114879	    0.170756	    0.285635	    0.059368	    0.053709	    0.113076	    0.052950	    0.089647	    0.142597	    0.101885	    0.153900	    0.255785	    0.052285	    0.060581	    0.112866	    0.040865	    0.103608	    0.144473	    0.070228	    0.010255	    0.080483	   -0.017330	    0.065331	    0.048001	   -0.128843	    0.027312	   -0.101531	   -0.188881	   -0.019386	   -0.208267	   -0.061555	    0.034621	   -0.026934	   -0.007313	    0.078490	    0.071177	    0.092405	    0.056565	    0.148970
     6.450	0	0	    0	   -0.079713	   -0.019675	   -0.099389	   -0.033912	    0.057356	    0.023444	   -0.016426	    0.019066	    0.002640	   -0.007969	   -0.051010	   -0.058979	    0.154621	    0.106056	    0.260677	    0.309584	    0.085018	    0.394602	    0.016035	    0.017588	    0.033623	   -0.019722	    0.030975	    0.011253	   -0.040856	    0.034047	   -0.006809	    0.206958	    0.204909	    0.411867	    0.074044	    0.082799	    0.156843	    0.095804	    0.058664	    0.154468	    0.102346	    0.161629	    0.263975	    0.049826	    0.069287	    0.119113	    0.036422	    0.100886	    0.137308	    0.062636	    0.008031	    0.070667	   -0.035636	    0.063487	    0.027851	   -0.214211	   -0.033826	   -0.248038	   -0.303246	   -0.117693	   -0.420939	   -0.093069	    0.046688	   -0.046381	   -0.017662	    0.073970	    0.056308	    0.089440	    0.054982	    0.144422
     6.525	0	0	    0	   -0.080292	   -0.034492	   -0.114784	   -0.014352	    0.052689	    0.038337	   -0.001508	    0.014048	    0.012540	   -0.007869	   -0.076633	   -0.084502	    0.175241	    0.110784	    0.286024	    0.315453	    0.084333	    0.399786	    0.024049	    0.011703	    0.035752	   -0.025149	    0.033202	    0.008053	   -0.043470	    0.057227	    0.013757	    0.159464	    0.250454	    0.409918	    0.047109	    0.080549	    0.127658	    0.108049	    0.112752	    0.220800	    0.111343	    0.183182	    0.294525	    0.042002	    0.068684	    0.110686	    0.032047	    0.101577	    0.133624	    0.065345	    0.002048	    0.067393	   -0.028185	    0.051569	    0.023384	   -0.129908	   -0.058138	   -0.188046	   -0.188387	   -0.134011	   -0.322398	   -0.086142	    0.006056	   -0.080085	    0.000836	    0.073493	    0.074329	    0.085055	    0.052114	    0.137169
     6.600	0	0	    0	   -0.051448	   -0.029092	   -0.080540	   -0.016728	    0.071795	    0.055067	   -0.002194	    0.044596	    0.042402	   -0.003144	   -0.054877	   -0.058021	    0.141900	    0.112550	    0.254449	    0.322033	    0.114531	    0.436563	    0.049844	    0.016563	    0.066407	   -0.028940	    0.029105	    0.000165	   -0.026431	    0.029985	    0.003554	    0.050877	    0.196268	    0.247145	    0.010751	    0.047067	    0.057818	    0.041792	    0.097966	    0.139758	    0.116798	    0.168262	    0.285061	    0.050541	    0.055310	    0.105850	    0.041199	    0.099755	    0.140954	    0.066808	   -0.000210	    0.066598	    0.006946	    0.068967	    0.075913	   -0.048835	    0.033523	   -0.015312	   -0.061922	   -0.025835	   -0.087758	   -0.038438	    0.028464	   -0.009974	    0.013134	    0.082158	    0.095292	    0.092756	    0.051737	    0.144493
     6.675	0	0	    0	   -0.019335	    0.011440	   -0.007895	   -0.022611	    0.079144	    0.056533	   -0.027674	    0.064720	    0.037046	   -0.022460	   -0.011211	   -0.033670	    0.047742	    0.135195	    0.182937	    0.219845	    0.138207	    0.358052	    0.061928	    0.040746	    0.102673	   -0.022389	    0.019304	   -0.003085	   -0.004850	    0.038559	    0.033709	   -0.002600	    0.119195	    0.116595	    0.013051	    0.023729	    0.036780	   -0.014988	    0.038280	    0.023292	    0.059045	    0.161749	    0.220794	    0.044983	    0.053358	    0.098341	    0.044343	    0.106117	    0.150460	    0.073156	    0.005558	    0.078714	   -0.008234	    0.070142	    0.061907	   -0.042619	    0.081441	    0.038822	   -0.036589	    0.063531	    0.026941	   -0.017567	    0.064228	    0.046661	    0.008504	    0.074028	    0.082533	    0.100377	    0.058980	    0.159357
     6.750	0	0	    0	   -0.003468	    0.032913	    0.029445	   -0.028061	    0.085157	    0.057095	   -0.038108	    0.088104	    0.049996	   -0.016607	    0.040711	    0.024105	   -0.026865	    0.077211	    0.050346	    0.179830	    0.091574	    0.271404	    0.066790	    0.051681	    0.118472	   -0.027195	    0.019906	   -0.007289	    0.004786	    0.046780	    0.051566	   -0.014585	    0.089909	    0.075325	    0.019578	    0.031559	    0.051137	   -0.034565	    0.028553	   -0.006012	    0.020939	    0.116131	    0.137070	    0.052670	    0.048223	    0.100893	    0.033873	    0.105168	    0.139042	    0.067053	    0.010115	    0.077168	   -0.010173	    0.067345	    0.057172	   -0.049434	    0.098115	    0.048681	   -0.044735	    0.089553	    0.044818	   -0.018179	    0.082736	    0.064557	    0.001302	    0.068196	    0.069498	    0.093137	    0.056347	    0.149485
     6.825	0	0	    0	   -0.018123	    0.043372	    0.025249	   -0.020009	    0.078014	    0.058005	   -0.018165	    0.073477	    0.055312	    0.000976	    0.050586	    0.051563	    0.018503	    0.032907	    0.051410	    0.298250	    0.073816	    0.372066	    0.042818	    0.050689	    0.093506	   -0.037811	    0.018719	   -0.019093	   -0.007535	    0.058578	    0.051042	    0.093756	    0.075744	    0.169500	    0.051648	    0.046397	    0.098045	   -0.019328	    0.019000	   -0.000328	    0.073352	    0.097642	    0.170995	    0.051324	    0.056482	    0.107805	    0.022421	    0.103949	    0.126370	    0.050737	    0.003950	    0.054687	   -0.018213	    0.069292	    0.051079	   -0.156242	    0.074574	   -0.081668	   -0.225963	    0.049946	   -0.176017	   -0.040905	    0.089237	    0.048333	   -0.008902	    0.070211	    0.061310	    0.086249	    0.051392	    0.137641
     6.900	0	0	    0	   -0.078021	   -0.005544	   -0.083565	   -0.024847	    0.067004	    0.042156	   -0.024500	    0.017096	   -0.007405	   -0.027338	   -0.021807	   -0.049145	    0.158887	    0.092060	    0.250947	    0.321023	    0.082464	    0.403486	    0.009355	    0.021520	    0.030875	   -0.036291	    0.016833	   -0.019458	   -0.016605	    0.053165	    0.036560	    0.236200	    0.227701	    0.463902	    0.076247	    0.089876	    0.166124	    0.101919	    0.065517	    0.167436	    0.131760	    0.137267	    0.269027	    0.067815	    0.082134	    0.149949	    0.018626	    0.100932	    0.119558	    0.058386	   -0.012352	    0.046034	   -0.044474	    0.059369	    0.014894	   -0.224592	   -0.042057	   -0.266649	   -0.335136	   -0.135428	   -0.470564	   -0.108138	    0.052272	   -0.055866	   -0.018307	    0.070533	    0.052227	    0.093051	    0.044804	    0.137855
     6.975	0	0	    0	   -0.079532	   -0.028045	   -0.107577	   -0.027444	    0.063296	    0.035852	   -0.019296	    0.005706	   -0.013591	   -0.031343	   -0.108947	   -0.140291	    0.202476	    0.109861	    0.312337	    0.320951	    0.084357	    0.405308	    0.002383	    0.010690	    0.013073	   -0.029846	    0.031602	    0.001757	   -0.028947	    0.079196	    0.050249	    0.237321	    0.291663	    0.528984	    0.078379	    0.109698	    0.188077	    0.145439	    0.125805	    0.271244	    0.196862	    0.246760	    0.443622	    0.058386	    0.113653	    0.172039	    0.016355	    0.100730	    0.117085	    0.061737	   -0.004567	    0.057169	   -0.029678	    0.051832	    0.022153	   -0.233373	   -0.089042	   -0.322415	   -0.327911	   -0.192109	   -0.520020	   -0.129438	    0.000336	   -0.129102	    0.011009	    0.095461	    0.106471	    0.080798	    0.051109	    0.131907
     7.050	0	0	    0	   -0.083151	   -0.028967	   -0.112117	   -0.024819	    0.059853	    0.035034	   -0.007693	    0.007017	   -0.000676	   -0.017173	   -0.113917	   -0.131090	    0.193185	    0.114834	    0.308019	    0.319406	    0.084559	    0.403965	    0.012479	    0.003590	    0.016070	   -0.037781	    0.034800	   -0.002981	   -0.061359	    0.066996	    0.005637	    0.134126	    0.262791	    0.396917	    0.033654	    0.085985	    0.119639	    0.131028	    0.136682	    0.267710	    0.140500	    0.255233	    0.395733	    0.031166	    0.082247	    0.113412	    0.014726	    0.083853	    0.098578	    0.049423	   -0.006073	    0.043350	   -0.034999	    0.047951	    0.012952	   -0.144364	   -0.058076	   -0.202440	   -0.217998	   -0.148606	   -0.366604	   -0.093945	   -0.009324	   -0.103269	   -0.006487	    0.103799	    0.097311	    0.067925	    0.032383	    0.100307
     7.125	0	0	    0	   -0.056831	   -0.030676	   -0.087507	   -0.030521	    0.071066	    0.040546	   -0.016625	    0.024793	    0.008168	   -0.010636	   -0.098275	   -0.108911	    0.165196	    0.110499	    0.275695	    0.335544	    0.095615	    0.431159	    0.026653	    0.014051	    0.040704	   -0.042294	    0.018130	   -0.024164	   -0.043346	    0.030849	   -0.012497	    0.062866	    0.181321	    0.244187	    0.026710	    0.041272	    0.067982	    0.077122	    0.097293	    0.174415	    0.124378	    0.185637	    0.310015	    0.031381	    0.061179	    0.092559	    0.017896	    0.091461	    0.109357	    0.052720	   -0.014247	    0.038473	   -0.017985	    0.055909	    0.037924	   -0.102093	    0.022723	   -0.079370	   -0.141133	   -0.043806	   -0.184940	   -0.065660	    0.030506	   -0.035154	   -0.011749	    0.081915	    0.070166	    0.076882	    0.031785	    0.108667
     7.200	0	0	    0	   -0.055562	    0.001653	   -0.053909	   -0.036093	    0.070829	    0.034736	   -0.010049	    0.024129	    0.014080	   -0.017390	   -0.068226	   -0.085616	    0.151618	    0.127707	    0.279324	    0.324893	    0.115538	    0.440431	    0.019893	    0.023686	    0.043579	   -0.042943	    0.018345	   -0.024598	   -0.042192	    0.042109	   -0.000083	    0.110636	    0.144560	    0.255196	    0.052769	    0.051231	    0.104000	    0.057151	    0.064609	    0.121760	    0.119882	    0.183212	    0.303094	    0.033188	    0.058879	    0.092067	    0.000428	    0.103257	    0.103685	    0.051477	   -0.005946	    0.045531	   -0.026443	    0.062541	    0.036097	   -0.171796	    0.036868	   -0.134928	   -0.245083	   -0.021562	   -0.266644	   -0.069162	    0.062558	   -0.006604	   -0.018235	    0.072209	    0.053974	    0.060782	    0.045811	    0.106592
     7.275	0	0	    0	   -0.096753	   -0.016484	   -0.113237	   -0.030207	    0.060606	    0.030399	   -0.018540	    0.016338	   -0.002202	   -0.015541	   -0.087246	   -0.102786	    0.173687	    0.110357	    0.284044	    0.316690	    0.079187	    0.395876	   -0.018827	    0.004800	   -0.014028	   -0.095494	    0.007240	   -0.088255	   -0.061945	    0.042249	   -0.019696	    0.215575	    0.220456	    0.436031	    0.078579	    0.076198	    0.154778	    0.136856	    0.079779	    0.216635	    0.142381	    0.176236	    0.318617	    0.023431	    0.055379	    0.078810	   -0.027561	    0.023919	   -0.003642	   -0.004318	   -0.031017	   -0.035335	   -0.034182	    0.053918	    0.019736	   -0.224134	   -0.043174	   -0.267307	   -0.327098	   -0.142251	   -0.469349	   -0.112578	    0.047297	   -0.065281	   -0.018283	    0.075031	    0.056748	    0.021825	   -0.001286	    0.020539
     7.350	0	0	    0	   -0.090239	   -0.045253	   -0.135492	   -0.008441	    0.067715	    0.059274	   -0.012336	    0.013910	    0.001573	   -0.022734	   -0.112031	   -0.134765	    0.203468	    0.114495	    0.317963	    0.336678	    0.083080	    0.419758	   -0.019320	   -0.012234	   -0.031554	   -0.067359	   -0.058167	   -0.125526	   -0.049607	    0.050628	    0.001021	    0.229448	    0.281404	    0.510853	    0.066461	    0.107677	    0.174138	    0.162453	    0.136305	    0.298757	    0.211481	    0.264446	    0.475927	    0.028767	    0.079031	    0.107798	   -0.022942	    0.014795	   -0.008147	   -0.002909	   -0.055940	   -0.058849	   -0.022407	    0.060968	    0.038561	   -0.201789	   -0.081201	   -0.282990	   -0.293156	   -0.186971	   -0.480128	   -0.105789	    0.002527	   -0.103262	    0.018285	    0.110685	    0.128970	    0.021600	   -0.004506	    0.017094
     7.425	0	0	    0	   -0.075864	   -0.045537	   -0.121401	   -0.003906	    0.073470	    0.069564	    0.001819	    0.016844	    0.018663	   -0.012276	   -0.108679	   -0.120955	    0.193616	    0.121227	    0.314843	    0.336230	    0.090104	    0.426333	    0.008362	   -0.010578	   -0.002216	   -0.057203	   -0.052171	   -0.109374	   -0.051149	    0.039433	   -0.011716	    0.110241	    0.242618	    0.352859	    0.032244	    0.062665	    0.094909	    0.132881	    0.144491	    0.277371	    0.147488	    0.252958	    0.400446	    0.029915	    0.064067	    0.093981	   -0.000872	    0.020448	    0.019576	    0.016068	   -0.063920	   -0.047852	   -0.019683	    0.057183	    0.037500	   -0.091459	   -0.026510	   -0.117969	   -0.138336	   -0.114283	   -0.252619	   -0.059324	    0.016530	   -0.042794	    0.003219	    0.103385	    0.106604	    0.038691	   -0.000086	    0.038605
     7.500	0	0	    0	   -0.038741	   -0.022949	   -0.061690	   -0.010153	    0.077403	    0.067249	   -0.003122	    0.031529	    0.028406	   -0.006877	   -0.081673	   -0.088551	    0.168132	    0.126613	    0.294744	    0.349623	    0.124233	    0.473856	    0.022801	    0.007245	    0.030046	   -0.055889	   -0.039409	   -0.095298	   -0.021107	    0.034623	    0.013516	    0.093366	    0.151627	    0.244993	    0.053087	    0.030669	    0.083756	    0.064269	    0.090562	    0.154831	    0.153675	    0.205594	    0.359269	    0.039957	    0.052213	    0.092170	   -0.006917	    0.046153	    0.039236	    0.028728	   -0.042607	   -0.013879	   -0.007185	    0.064829	    0.057644	   -0.111334	    0.051898	   -0.059436	   -0.164794	    0.003563	   -0.161232	   -0.033234	    0.059379	    0.026145	    0.000436	    0.085724	    0.086161	    0.046680	    0.013579	    0.060259
     7.575	0	0	    0	   -0.071311	   -0.006412	   -0.077723	   -0.005419	    0.070756	    0.065337	   -0.002371	    0.025879	    0.023508	   -0.012369	   -0.073910	   -0.086280	    0.178072	    0.128639	    0.306711	    0.329798	    0.098942	    0.428741	   -0.001506	    0.004499	    0.002993	   -0.060335	   -0.030852	   -0.091187	   -0.035207	    0.040314	    0.005107	    0.214457	    0.194348	    0.408806	    0.066125	    0.069179	    0.135304	    0.123518	    0.067087	    0.190604	    0.147997	    0.202202	    0.350199	    0.039006	    0.060623	    0.099629	   -0.012747	    0.045221	    0.032473	    0.021213	   -0.041032	   -0.019819	   -0.021041	    0.063800	    0.042759	   -0.193144	   -0.019604	   -0.212748	   -0.298856	   -0.105568	   -0.404424	   -0.067991	    0.068012	    0.000021	   -0.005621	    0.078579	    0.072958	    0.042020	    0.014212	    0.056232
     7.650	0	0	    0	   -0.079407	   -0.036902	   -0.116309	   -0.006186	    0.070551	    0.064364	   -0.005915	    0.016474	    0.010559	   -0.015606	   -0.103788	   -0.119394	    0.205302	    0.119246	    0.324548	    0.336227	    0.085622	    0.421848	   -0.008112	   -0.006283	   -0.014395	   -0.057406	   -0.029267	   -0.086673	   -0.034503	    0.053066	    0.018563	    0.239215	    0.261497	    0.500711	    0.072929	    0.093992	    0.166921	    0.159178	    0.134866	    0.294044	    0.205891	    0.232620	    0.438511	    0.040374	    0.078662	    0.119036	   -0.007184	    0.041730	    0.034546	    0.021922	   -0.044670	   -0.022748	   -0.019336	    0.054401	    0.035065	   -0.213871	   -0.063987	   -0.277857	   -0.311293	   -0.164731	   -0.476024	   -0.098266	    0.025943	   -0.072322	    0.017591	    0.091318	    0.108909	    0.048987	    0.008476	    0.057463
     7.725	0	0	    0	   -0.082268	   -0.036567	   -0.118836	   -0.007703	    0.068062	    0.060359	   -0.002823	    0.008237	    0.005414	   -0.012185	   -0.113718	   -0.125903	    0.206083	    0.126482	    0.332564	    0.335117	    0.085073	    0.420191	    0.001211	   -0.010846	   -0.009635	   -0.055657	   -0.020375	   -0.076032	   -0.045480	    0.063609	    0.018130	    0.178472	    0.262680	    0.441152	    0.053784	    0.083692	    0.137476	    0.163709	    0.145717	    0.309425	    0.175471	    0.265668	    0.441139	    0.030407	    0.073958	    0.104365	   -0.006233	    0.054614	    0.048381	    0.029172	   -0.039042	   -0.009871	   -0.028052	    0.055656	    0.027604	   -0.161284	   -0.068879	   -0.230163	   -0.242198	   -0.166148	   -0.408346	   -0.082134	    0.001786	   -0.080348	    0.004432	    0.106935	    0.111366	    0.050442	    0.016468	    0.066910
     7.800	0	0	    0	   -0.057914	   -0.041142	   -0.099057	   -0.010694	    0.074025	    0.063331	   -0.000692	    0.024565	    0.023873	   -0.004618	   -0.103343	   -0.107961	    0.173898	    0.124047	    0.297945	    0.352053	    0.095145	    0.447198	    0.022114	   -0.002096	    0.020018	   -0.062605	   -0.013395	   -0.076001	   -0.036095	    0.031093	   -0.005002	    0.079688	    0.189477	    0.269165	    0.015173	    0.056845	    0.072019	    0.088486	    0.128313	    0.216799	    0.141847	    0.190909	    0.332756	    0.026554	    0.058099	    0.084653	   -0.009729	    0.062242	    0.052513	    0.030575	   -0.036845	   -0.006269	   -0.014117	    0.055528	    0.041411	   -0.084316	    0.021031	   -0.063285	   -0.106260	   -0.050127	   -0.156386	   -0.050455	    0.035381	   -0.015073	   -0.003736	    0.083649	    0.079913	    0.045969	    0.019497	    0.065466
     7.875	0	0	    0	   -0.029901	   -0.003690	   -0.033591	   -0.020286	    0.075952	    0.055666	   -0.025665	    0.032967	    0.007302	   -0.022639	   -0.054247	   -0.076886	    0.124878	    0.142910	    0.267788	    0.305842	    0.139534	    0.445376	    0.031104	    0.011965	    0.043069	   -0.073327	   -0.018469	   -0.091796	   -0.020433	    0.042609	    0.022176	    0.057327	    0.130218	    0.187546	    0.014387	    0.018323	    0.032711	    0.014619	    0.062377	    0.076996	    0.110084	    0.183027	    0.293110	    0.024069	    0.046224	    0.070293	   -0.014902	    0.043089	    0.028186	    0.011381	   -0.035977	   -0.024596	   -0.016082	    0.063478	    0.047397	   -0.087734	    0.065358	   -0.022376	   -0.102152	    0.040932	   -0.061220	   -0.039020	    0.068981	    0.029960	   -0.009655	    0.074246	    0.064591	    0.028203	    0.011113	    0.039316
     7.950	0	0	    0	   -0.053589	    0.011232	   -0.042357	   -0.010686	    0.072797	    0.062112	   -0.006506	    0.031007	    0.024501	   -0.026696	   -0.044540	   -0.071236	    0.137932	    0.118890	    0.256822	    0.333734	    0.124265	    0.457999	    0.004383	    0.009317	    0.013699	   -0.072654	   -0.041189	   -0.113843	   -0.034029	    0.044570	    0.010541	    0.151816	    0.158893	    0.310709	    0.024340	    0.040450	    0.064790	    0.043711	    0.029911	    0.073622	    0.129243	    0.177783	    0.307026	    0.016690	    0.043627	    0.060316	   -0.018175	    0.029286	    0.011111	   -0.005367	   -0.054006	   -0.059373	   -0.016024	    0.068021	    0.051997	   -0.161544	    0.027234	   -0.134310	   -0.217177	   -0.005775	   -0.222952	   -0.060332	    0.069522	    0.009190	   -0.013108	    0.074098	    0.060990	    0.016299	    0.000265	    0.016563
     8.025	0	0	    0	   -0.074027	   -0.020558	   -0.094585	   -0.007124	    0.070115	    0.062991	   -0.009003	    0.027326	    0.018324	   -0.027269	   -0.069255	   -0.096524	    0.162777	    0.129151	    0.291928	    0.320082	    0.092742	    0.412823	   -0.010230	   -0.007568	   -0.017799	   -0.067630	   -0.048244	   -0.115874	   -0.044642	    0.046977	    0.002335	    0.152276	    0.227848	    0.380123	   -0.006176	    0.052188	    0.046012	    0.097639	    0.076554	    0.174193	    0.119228	    0.188429	    0.307657	    0.012819	    0.056099	    0.068918	   -0.020461	    0.029919	    0.009459	   -0.008990	   -0.060360	   -0.069350	   -0.023294	    0.061493	    0.038199	   -0.128102	   -0.028181	   -0.156283	   -0.161763	   -0.098255	   -0.260018	   -0.085451	    0.043180	   -0.042271	   -0.024432	    0.079672	    0.055240	    0.014616	   -0.003626	    0.010989
     8.100	0	0	    0	   -0.034939	   -0.026363	   -0.061303	   -0.028080	    0.084510	    0.056429	   -0.037776	    0.049656	    0.011880	   -0.032256	   -0.047466	   -0.079722	    0.129556	    0.144157	    0.273713	    0.288464	    0.144013	    0.432477	    0.015484	    0.001654	    0.017138	   -0.078710	   -0.047312	   -0.126023	   -0.032144	    0.033307	    0.001162	    0.030114	    0.172782	    0.202896	   -0.017566	    0.013298	   -0.004269	    0.007330	    0.096145	    0.103475	    0.099229	    0.190344	    0.289573	    0.005724	    0.042632	    0.048356	   -0.024185	    0.030787	    0.006602	   -0.008363	   -0.061099	   -0.069463	   -0.007991	    0.070336	    0.062346	   -0.056904	    0.068397	    0.011493	   -0.052464	    0.023340	   -0.029125	   -0.060926	    0.043383	   -0.017543	   -0.015766	    0.079189	    0.063423	    0.008844	   -0.004496	    0.004348
     8.175	0	0	    0	   -0.007545	    0.030611	    0.023066	   -0.034678	    0.087404	    0.052726	   -0.076928	    0.103703	    0.026775	   -0.022017	    0.036826	    0.014809	   -0.016871	    0.125286	    0.108415	    0.142182	    0.119029	    0.261211	    0.044746	    0.029095	    0.073841	   -0.078441	   -0.058208	   -0.136649	   -0.005302	    0.043639	    0.038337	   -0.029068	    0.110630	    0.081562	   -0.022834	    0.036078	    0.013243	   -0.032979	    0.048824	    0.015845	    0.015901	    0.150441	    0.166342	    0.022869	    0.031523	    0.054392	   -0.021602	    0.029921	    0.008319	   -0.006820	   -0.063269	   -0.070089	   -0.013305	    0.064868	    0.051563	   -0.037909	    0.105954	    0.068045	   -0.021702	    0.096503	    0.074801	   -0.034774	    0.072949	    0.038175	   -0.010127	    0.070411	    0.060284	    0.014769	   -0.006462	    0.008307
     8.250	0	0	    0	    0.004799	    0.052575	    0.057374	   -0.034452	    0.091618	    0.057166	   -0.086197	    0.105300	    0.019103	   -0.047188	    0.085552	    0.038364	   -0.068206	    0.047748	   -0.020457	    0.104550	    0.072236	    0.176786	    0.044810	    0.046147	    0.090957	   -0.070857	   -0.063719	   -0.134576	    0.004660	    0.052935	    0.057595	   -0.026631	    0.089235	    0.062603	   -0.027437	    0.035135	    0.007699	   -0.050801	    0.040209	   -0.010593	    0.011187	    0.110592	    0.121779	    0.023297	    0.043077	    0.066374	   -0.021672	    0.029749	    0.008077	   -0.005000	   -0.059784	   -0.064784	   -0.005108	    0.064040	    0.058932	   -0.029755	    0.117353	    0.087597	   -0.013427	    0.110916	    0.097489	   -0.019251	    0.095350	    0.076098	    0.000352	    0.074345	    0.074697	    0.016040	   -0.006373	    0.009667
     8.325	0	0	    0	    0.015573	    0.059619	    0.075193	   -0.041316	    0.094240	    0.052924	   -0.103445	    0.108321	    0.004876	   -0.056096	    0.089370	    0.033274	   -0.096849	    0.022712	   -0.074137	    0.047792	    0.041427	    0.089219	    0.056522	    0.049705	    0.106228	   -0.068763	   -0.065763	   -0.134526	    0.010589	    0.054091	    0.064679	   -0.041818	    0.081603	    0.039786	   -0.034710	    0.032027	   -0.002683	   -0.060014	    0.036808	   -0.023206	   -0.029156	    0.105004	    0.075848	    0.027283	    0.039550	    0.066833	   -0.019876	    0.028997	    0.009121	   -0.004417	   -0.060782	   -0.065200	    0.004210	    0.068090	    0.072301	   -0.018112	    0.129567	    0.111455	   -0.008591	    0.123447	    0.114856	   -0.012274	    0.099196	    0.086921	    0.001400	    0.068720	    0.070121	    0.016238	   -0.006034	    0.010204
     8.400	0	0	    0	    0.020761	    0.070238	    0.090998	   -0.048591	    0.094603	    0.046012	   -0.109127	    0.109463	    0.000335	   -0.065411	    0.097510	    0.032099	   -0.126117	   -0.010222	   -0.136339	    0.022271	    0.004374	    0.026645	    0.049702	    0.060099	    0.109800	   -0.067370	   -0.066185	   -0.133555	    0.007904	    0.054062	    0.061965	   -0.054003	    0.074415	    0.020413	   -0.041682	    0.027651	   -0.014030	   -0.071740	    0.033394	   -0.038346	   -0.053955	    0.072438	    0.018483	    0.024888	    0.038569	    0.063457	   -0.020568	    0.030573	    0.010005	   -0.005480	   -0.060964	   -0.066445	    0.007632	    0.074049	    0.081681	   -0.019325	    0.141337	    0.122011	   -0.014949	    0.129274	    0.114325	   -0.014774	    0.106794	    0.092020	   -0.001675	    0.069276	    0.067601	    0.014613	   -0.004109	    0.010503
     8.475	0	0	    0	    0.021333	    0.070513	    0.091846	   -0.050670	    0.092923	    0.042253	   -0.095267	    0.103359	    0.008092	   -0.062651	    0.092650	    0.030000	   -0.125440	   -0.026794	   -0.152234	    0.034743	   -0.009929	    0.024813	    0.053917	    0.055104	    0.109022	   -0.065789	   -0.067694	   -0.133483	    0.004115	    0.053846	    0.057961	   -0.047146	    0.074335	    0.027189	   -0.020349	    0.022285	    0.001936	   -0.077456	    0.026857	   -0.050599	   -0.057430	    0.058136	    0.000706	    0.025666	    0.035325	    0.060990	   -0.020175	    0.030455	    0.010280	   -0.006672	   -0.059693	   -0.066364	    0.005738	    0.075749	    0.081486	   -0.041372	    0.145372	    0.104001	   -0.039976	    0.129141	    0.089165	   -0.022512	    0.107472	    0.084960	   -0.006553	    0.066997	    0.060444	    0.018915	   -0.010122	    0.008793
     8.550	0	0	    0	   -0.008535	    0.064415	    0.055881	   -0.026261	    0.076721	    0.050460	   -0.016733	    0.071251	    0.054518	   -0.024608	    0.069404	    0.044796	   -0.024446	   -0.040784	   -0.065230	    0.248317	    0.012165	    0.260483	    0.024746	    0.035320	    0.060066	   -0.068033	   -0.066423	   -0.134456	   -0.013572	    0.047299	    0.033727	    0.082246	    0.082534	    0.164780	    0.032645	    0.040595	    0.073240	   -0.060318	    0.016233	   -0.044085	    0.024419	    0.056124	    0.080542	    0.024370	    0.032591	    0.056961	   -0.022945	    0.030075	    0.007131	   -0.013826	   -0.062995	   -0.076821	    0.000719	    0.081585	    0.082304	   -0.144025	    0.096372	   -0.047653	   -0.179883	    0.071195	   -0.108688	   -0.055261	    0.106867	    0.051607	   -0.019421	    0.067248	    0.047827	    0.014035	   -0.006464	    0.007571
     8.625	0	0	    0	   -0.070198	    0.006136	   -0.064062	   -0.020883	    0.073790	    0.052907	   -0.016646	    0.022188	    0.005542	   -0.019992	   -0.026104	   -0.046096	    0.126555	    0.081781	    0.208336	    0.299142	    0.077788	    0.376930	   -0.010080	    0.004556	   -0.005524	   -0.064671	   -0.065954	   -0.130624	   -0.034526	    0.044259	    0.009733	    0.182961	    0.209860	    0.392822	    0.048708	    0.065693	    0.114402	    0.072198	    0.040737	    0.112935	    0.072229	    0.125315	    0.197544	    0.025497	    0.049167	    0.074664	   -0.019661	    0.027661	    0.008000	   -0.017407	   -0.067174	   -0.084582	   -0.026674	    0.077230	    0.050556	   -0.177244	    0.003483	   -0.173761	   -0.255985	   -0.061797	   -0.317782	   -0.103521	    0.072712	   -0.030808	   -0.030583	    0.066605	    0.036023	    0.011303	   -0.009060	    0.002242
     8.700	0	0	    0	   -0.080257	   -0.032465	   -0.112722	   -0.017441	    0.069473	    0.052032	   -0.019332	    0.018682	   -0.000650	   -0.017457	   -0.079854	   -0.097312	    0.162821	    0.110216	    0.273037	    0.319094	    0.074781	    0.393875	   -0.018138	   -0.006510	   -0.024648	   -0.060563	   -0.054825	   -0.115388	   -0.046923	    0.043799	   -0.003125	    0.177858	    0.237304	    0.415162	    0.047542	    0.076924	    0.124466	    0.117318	    0.106517	    0.223835	    0.129809	    0.178309	    0.308119	    0.026380	    0.061675	    0.088055	   -0.012161	    0.035698	    0.023537	   -0.008480	   -0.073854	   -0.082334	   -0.027247	    0.065730	    0.038483	   -0.184200	   -0.028673	   -0.212873	   -0.270273	   -0.116551	   -0.386824	   -0.104167	    0.044291	   -0.059877	   -0.011463	    0.082268	    0.070805	    0.024009	   -0.005545	    0.018463
     8.775	0	0	    0	   -0.074101	   -0.037318	   -0.111419	   -0.020897	    0.070537	    0.049640	   -0.017814	    0.013315	   -0.004499	   -0.006724	   -0.091150	   -0.097874	    0.159300	    0.117017	    0.276317	    0.312410	    0.082947	    0.395358	   -0.005052	   -0.007229	   -0.012282	   -0.063832	   -0.043004	   -0.106836	   -0.053682	    0.037896	   -0.015786	    0.101539	    0.225619	    0.327158	    0.013670	    0.063969	    0.077639	    0.104870	    0.126587	    0.231457	    0.092726	    0.190486	    0.283212	    0.018018	    0.055851	    0.073870	   -0.014981	    0.035952	    0.020971	   -0.002263	   -0.060921	   -0.063183	   -0.028561	    0.056155	    0.027594	   -0.110087	   -0.006171	   -0.116258	   -0.162602	   -0.086897	   -0.249499	   -0.081792	    0.039859	   -0.041933	   -0.023353	    0.080056	    0.056703	    0.018347	    0.004197	    0.022544
     8.850	0	0	    0	   -0.049333	   -0.018699	   -0.068032	   -0.028706	    0.079454	    0.050748	   -0.010060	    0.025980	    0.015920	    0.003780	   -0.067673	   -0.063893	    0.145756	    0.112752	    0.258508	    0.312291	    0.100471	    0.412762	    0.002965	    0.004572	    0.007537	   -0.064233	   -0.050999	   -0.115232	   -0.038859	    0.032156	   -0.006703	    0.084974	    0.155005	    0.239980	    0.043446	    0.047190	    0.090636	    0.053235	    0.080917	    0.134153	    0.101368	    0.167798	    0.269167	    0.021371	    0.042246	    0.063616	   -0.014247	    0.032896	    0.018649	    0.001996	   -0.054048	   -0.052052	   -0.022777	    0.061239	    0.038463	   -0.137851	    0.050165	   -0.087686	   -0.197271	   -0.006644	   -0.203915	   -0.071033	    0.072394	    0.001362	   -0.019780	    0.076625	    0.056846	    0.017231	    0.003156	    0.020387
     8.925	0	0	    0	   -0.072898	   -0.014035	   -0.086933	   -0.039730	    0.071710	    0.031980	   -0.025657	    0.022002	   -0.003654	   -0.003139	   -0.063946	   -0.067084	    0.151234	    0.116700	    0.267934	    0.305198	    0.083237	    0.388435	   -0.013582	   -0.003640	   -0.017222	   -0.065316	   -0.049531	   -0.114847	   -0.050863	    0.032950	   -0.017912	    0.185581	    0.194005	    0.379586	    0.059308	    0.070839	    0.130147	    0.101224	    0.075804	    0.177028	    0.103159	    0.173622	    0.276781	    0.021299	    0.044787	    0.066086	   -0.018226	    0.034333	    0.016107	   -0.010705	   -0.058434	   -0.069140	   -0.029757	    0.066379	    0.036623	   -0.211864	   -0.002198	   -0.214062	   -0.304491	   -0.077922	   -0.382413	   -0.092408	    0.073476	   -0.018931	   -0.025001	    0.077672	    0.052671	    0.018634	   -0.004947	    0.013687
     9.000	0	0	    0	   -0.087703	   -0.036134	   -0.123836	   -0.043325	    0.064913	    0.021588	   -0.031737	    0.012953	   -0.018785	   -0.016553	   -0.094910	   -0.111463	    0.169639	    0.111430	    0.281069	    0.307299	    0.073612	    0.380911	   -0.015454	   -0.014123	   -0.029577	   -0.060075	   -0.046637	   -0.106712	   -0.057407	    0.044985	   -0.012422	    0.185153	    0.254756	    0.439909	    0.048018	    0.089594	    0.137612	    0.130232	    0.125353	    0.255585	    0.120396	    0.206885	    0.327281	    0.014952	    0.061185	    0.076137	   -0.010455	    0.031603	    0.021148	    0.000747	   -0.059647	   -0.058900	   -0.041670	    0.058305	    0.016636	   -0.202117	   -0.048124	   -0.250242	   -0.293224	   -0.143203	   -0.436427	   -0.117136	    0.039014	   -0.078123	   -0.023239	    0.082883	    0.059644	    0.022467	    0.005414	    0.027882
     9.075	0	0	    0	   -0.076682	   -0.039385	   -0.116068	   -0.017982	    0.064990	    0.047008	   -0.011632	    0.007993	   -0.003640	   -0.009922	   -0.100758	   -0.110680	    0.164425	    0.110127	    0.274552	    0.318274	    0.077030	    0.395304	    0.006993	   -0.007498	   -0.000505	   -0.067083	   -0.042086	   -0.109169	   -0.057747	    0.034562	   -0.023185	    0.109854	    0.236292	    0.346146	    0.036251	    0.070068	    0.106320	    0.112495	    0.131487	    0.243982	    0.092511	    0.197218	    0.289728	    0.027488	    0.053085	    0.080573	   -0.016842	    0.036348	    0.019506	   -0.000000	   -0.059838	   -0.059838	   -0.013028	    0.051803	    0.038774	   -0.103589	   -0.004485	   -0.108074	   -0.160608	   -0.095525	   -0.256133	   -0.073539	    0.036157	   -0.037382	   -0.019792	    0.078358	    0.058567	    0.019260	    0.001721	    0.020981
     9.150	0	0	    0	   -0.041248	   -0.017939	   -0.059187	   -0.014713	    0.081786	    0.067073	   -0.000316	    0.025000	    0.024684	    0.011827	   -0.084330	   -0.072502	    0.159495	    0.115213	    0.274708	    0.323874	    0.110445	    0.434318	    0.030580	    0.003850	    0.034430	   -0.066889	   -0.045857	   -0.112746	   -0.034430	    0.026965	   -0.007465	    0.053226	    0.175614	    0.228840	    0.038883	    0.049078	    0.087961	    0.063302	    0.091099	    0.154402	    0.111342	    0.171011	    0.282352	    0.033675	    0.043699	    0.077374	   -0.015953	    0.037629	    0.021675	    0.000482	   -0.059688	   -0.059206	    0.003927	    0.068516	    0.072443	   -0.066868	    0.063286	   -0.003582	   -0.095865	    0.004264	   -0.091601	   -0.035543	    0.077879	    0.042335	   -0.003466	    0.079069	    0.075603	    0.022560	   -0.002630	    0.019930
     9.225	0	0	    0	   -0.019548	    0.009012	   -0.010536	   -0.018773	    0.090849	    0.072076	   -0.005106	    0.042070	    0.036964	    0.009910	   -0.043518	   -0.033608	    0.118035	    0.136797	    0.254832	    0.287795	    0.134231	    0.422025	    0.036474	    0.019024	    0.055499	   -0.063911	   -0.049212	   -0.113122	   -0.022299	    0.033435	    0.011136	    0.018311	    0.138419	    0.156730	    0.042314	    0.042365	    0.084679	    0.023496	    0.063221	    0.086717	    0.089710	    0.168749	    0.258459	    0.031901	    0.044290	    0.076191	   -0.016935	    0.038975	    0.022040	    0.001896	   -0.058139	   -0.056243	    0.002811	    0.071872	    0.074683	   -0.057981	    0.093033	    0.035052	   -0.080209	    0.051142	   -0.029068	   -0.026899	    0.095088	    0.068188	   -0.005253	    0.072452	    0.067199	    0.019839	    0.001052	    0.020890
     9.300	0	0	    0	   -0.025068	    0.027113	    0.002045	   -0.022483	    0.086994	    0.064510	   -0.000895	    0.041848	    0.040952	    0.011331	   -0.034433	   -0.023102	    0.120500	    0.116897	    0.237398	    0.313126	    0.117533	    0.430659	    0.020665	    0.021007	    0.041672	   -0.065608	   -0.048686	   -0.114294	   -0.027903	    0.039825	    0.011922	    0.066876	    0.132343	    0.199219	    0.061050	    0.061643	    0.122693	    0.045231	    0.040595	    0.085826	    0.103323	    0.162106	    0.265429	    0.025789	    0.043242	    0.069031	   -0.020956	    0.039060	    0.018104	   -0.001000	   -0.057130	   -0.058130	   -0.000624	    0.070048	    0.069424	   -0.097521	    0.079085	   -0.018437	   -0.146803	    0.019035	   -0.127768	   -0.039190	    0.103077	    0.063888	   -0.012236	    0.073744	    0.061508	    0.017197	   -0.002177	    0.015020
     9.375	0	0	    0	   -0.036602	    0.009264	   -0.027339	   -0.015294	    0.083200	    0.067906	    0.000916	    0.030549	    0.031465	    0.014822	   -0.049612	   -0.034790	    0.145193	    0.126369	    0.271562	    0.320077	    0.110870	    0.430947	    0.019436	    0.008301	    0.027737	   -0.065981	   -0.049669	   -0.115651	   -0.029114	    0.034405	    0.005292	    0.092763	    0.173816	    0.266579	    0.060567	    0.066268	    0.126835	    0.078059	    0.074854	    0.152913	    0.100815	    0.169697	    0.270512	    0.025268	    0.038990	    0.064258	   -0.020618	    0.038852	    0.018234	   -0.003792	   -0.060552	   -0.064344	    0.006044	    0.071163	    0.077207	   -0.094916	    0.053371	   -0.041545	   -0.145192	   -0.014699	   -0.159891	   -0.040560	    0.089593	    0.049033	   -0.011273	    0.071855	    0.060581	    0.016445	   -0.003029	    0.013416
     9.450	0	0	    0	   -0.033968	    0.003525	   -0.030443	   -0.014671	    0.085974	    0.071303	    0.001060	    0.030075	    0.031136	    0.019754	   -0.057531	   -0.037777	    0.149730	    0.124490	    0.274221	    0.319550	    0.111428	    0.430978	    0.018592	    0.009812	    0.028404	   -0.067230	   -0.047812	   -0.115042	   -0.029173	    0.036302	    0.007130	    0.089514	    0.175752	    0.265267	    0.061530	    0.067250	    0.128780	    0.076786	    0.080089	    0.156874	    0.102452	    0.167972	    0.270424	    0.025284	    0.037056	    0.062340	   -0.019134	    0.040207	    0.021073	   -0.003831	   -0.061617	   -0.065448	    0.004252	    0.074132	    0.078384	   -0.093976	    0.058895	   -0.035081	   -0.145485	   -0.009238	   -0.154723	   -0.040722	    0.092108	    0.051386	   -0.012757	    0.072822	    0.060065	    0.018097	   -0.003636	    0.014461
     9.525	0	0	    0	   -0.033537	    0.002342	   -0.031195	   -0.017075	    0.086764	    0.069689	    0.000537	    0.029858	    0.030395	    0.018938	   -0.058685	   -0.039747	    0.150458	    0.126398	    0.276856	    0.318828	    0.108625	    0.427453	    0.016573	    0.005468	    0.022042	   -0.066282	   -0.049815	   -0.116098	   -0.031823	    0.037186	    0.005363	    0.096885	    0.173455	    0.270340	    0.060490	    0.070030	    0.130520	    0.078397	    0.080302	    0.158699	    0.099520	    0.167749	    0.267268	    0.023783	    0.038105	    0.061888	   -0.021539	    0.042581	    0.021041	   -0.005138	   -0.061055	   -0.066192	    0.003122	    0.071396	    0.074518	   -0.104632	    0.060012	   -0.044620	   -0.160613	   -0.010154	   -0.170767	   -0.047217	    0.093025	    0.045808	   -0.016435	    0.071304	    0.054869	    0.013737	    0.000192	    0.013929
     9.600	0	0	    0	   -0.040293	    0.000675	   -0.039618	   -0.019828	    0.084693	    0.064865	    0.000245	    0.028922	    0.029167	    0.016652	   -0.063078	   -0.046425	    0.152567	    0.123902	    0.276469	    0.316842	    0.104161	    0.421003	    0.005708	    0.010498	    0.016207	   -0.070103	   -0.047470	   -0.117573	   -0.036068	    0.035987	   -0.000082	    0.099083	    0.182181	    0.281263	    0.058816	    0.070634	    0.129450	    0.083412	    0.083269	    0.166681	    0.095813	    0.168381	    0.264194	    0.018330	    0.039925	    0.058255	   -0.022994	    0.043512	    0.020518	   -0.008435	   -0.061546	   -0.069981	   -0.000664	    0.074184	    0.073520	   -0.107023	    0.052102	   -0.054921	   -0.164368	   -0.018532	   -0.182900	   -0.055837	    0.089511	    0.033674	   -0.023262	    0.074087	    0.050825	    0.014812	   -0.003586	    0.011225
     9.675	0	0	    0	   -0.039407	   -0.001645	   -0.041052	   -0.021663	    0.083972	    0.062309	   -0.001071	    0.029754	    0.028683	    0.016635	   -0.065499	   -0.048865	    0.152844	    0.122890	    0.275733	    0.315620	    0.102024	    0.417644	    0.012499	    0.000667	    0.013166	   -0.071843	   -0.048307	   -0.120149	   -0.039170	    0.036303	   -0.002867	    0.094748	    0.181684	    0.276432	    0.057260	    0.070236	    0.127496	    0.082696	    0.084321	    0.167017	    0.091429	    0.167599	    0.259028	    0.016891	    0.036904	    0.053795	   -0.013490	    0.039127	    0.025637	   -0.010072	   -0.062874	   -0.072946	   -0.005042	    0.071519	    0.066477	   -0.108996	    0.053708	   -0.055287	   -0.165119	   -0.017525	   -0.182644	   -0.060154	    0.086702	    0.026548	   -0.026759	    0.073660	    0.046901	    0.025112	   -0.006237	    0.018875
     9.750	0	0	    0	   -0.044046	   -0.000107	   -0.044154	   -0.027398	    0.083731	    0.056333	   -0.002652	    0.029925	    0.027274	    0.014911	   -0.065223	   -0.050312	    0.151748	    0.122698	    0.274447	    0.311414	    0.101103	    0.412516	    0.007671	    0.005760	    0.013431	   -0.067669	   -0.049118	   -0.116787	   -0.039426	    0.035014	   -0.004412	    0.094707	    0.181338	    0.276044	    0.055898	    0.070543	    0.126441	    0.082634	    0.083679	    0.166314	    0.085486	    0.166958	    0.252444	    0.016548	    0.042890	    0.059438	    0.001512	    0.036417	    0.037929	    0.004504	   -0.061514	   -0.057010	   -0.011697	    0.071731	    0.060034	   -0.115243	    0.053717	   -0.061526	   -0.173445	   -0.018618	   -0.192063	   -0.065443	    0.086888	    0.021445	   -0.032090	    0.071969	    0.039878	    0.033811	    0.008334	    0.042145
     9.825	0	0	    0	   -0.049020	   -0.002020	   -0.051041	   -0.031516	    0.080592	    0.049077	   -0.007314	    0.028578	    0.021264	    0.013048	   -0.068158	   -0.055109	    0.151508	    0.120554	    0.272062	    0.306175	    0.097544	    0.403719	    0.004170	    0.002513	    0.006683	   -0.060296	   -0.050299	   -0.110595	   -0.041642	    0.036357	   -0.005285	    0.095147	    0.181700	    0.276847	    0.053052	    0.072503	    0.125555	    0.084206	    0.085085	    0.169291	    0.080307	    0.163584	    0.243891	    0.013392	    0.043336	    0.056728	   -0.006350	    0.040632	    0.034283	    0.007701	   -0.045489	   -0.037789	   -0.015537	    0.067689	    0.052152	   -0.123342	    0.049887	   -0.073455	   -0.188353	   -0.024546	   -0.212899	   -0.071352	    0.084482	    0.013130	   -0.035438	    0.069674	    0.034236	    0.022489	    0.014368	    0.036857
     9.900	0	0	    0	   -0.052724	   -0.004322	   -0.057046	   -0.036649	    0.080449	    0.043800	   -0.011512	    0.027457	    0.015945	    0.010530	   -0.070919	   -0.060389	    0.149607	    0.118803	    0.268410	    0.300832	    0.091225	    0.392057	   -0.005257	    0.002520	   -0.002737	   -0.069273	   -0.046895	   -0.116168	   -0.049834	    0.036533	   -0.013301	    0.097133	    0.183940	    0.281072	    0.051742	    0.074009	    0.125751	    0.089583	    0.090048	    0.179632	    0.076269	    0.161461	    0.237730	    0.006665	    0.042819	    0.049484	   -0.022835	    0.041594	    0.018760	   -0.006480	   -0.049135	   -0.055615	   -0.019789	    0.067973	    0.048184	   -0.131385	    0.043916	   -0.087469	   -0.200997	   -0.037240	   -0.238238	   -0.085926	    0.084978	   -0.000948	   -0.039061	    0.069485	    0.030424	    0.011744	    0.000992	    0.012736
