 [File Information]      		 [Data Line]	36
Measured Date	2024/05/21 101945
ID		Version	11.0
Name	tristan_5	[HeaderType]	11.0/11.0
Comment	
[Measurement Info.]
Holder Location	       0
Block Design	Off     
Pre.Rest Time	       0
Task Time	       0
Pos.Rest Time	       0
Loop	       0
Averaging	       1
Total Points	     841
[.INF File]
Filename	Cognitive1.INF
[Condition-1]
HV Switching	OFF
 R1 ,R2 ,R3 ,R4 ,R5 ,R6 ,R7 ,R8 
 120.00, 70.00,120.00,100.00, 90.00, 70.00,120.00,120.00
 Gain(X1,X4,X16,X64)
 R1 ,R2 ,R3 ,R4 ,R5 ,R6 ,R7 ,R8 
 1,1,1,1,1,1,1,1
[Analysis Condition]
Smoothed Type	None            
Smoothed Points	       0
Smoothed Loop	       0
Baseline Method	None            
Baseline location	
[Text Info.]
Output Mode	Continious      	Task No.		Data Type	Hb      
Time Range	    0.00	   63.00	Averaing	1
(1,3)(5,3)(5,7)(2,7)(2,4)(6,4)(6,8)(1,1)(3,3)(5,5)(7,7)(2,2)(4,4)(6,6)(8,8)(3,1)(3,5)(7,5)(7,2)(4,2)(4,6)(8,6)
         	     	     	     	    ch- 1	    ch- 1	    ch- 1	    ch- 2	    ch- 2	    ch- 2	    ch- 3	    ch- 3	    ch- 3	    ch- 4	    ch- 4	    ch- 4	    ch- 5	    ch- 5	    ch- 5	    ch- 6	    ch- 6	    ch- 6	    ch- 7	    ch- 7	    ch- 7	    ch- 8	    ch- 8	    ch- 8	    ch- 9	    ch- 9	    ch- 9	    ch-10	    ch-10	    ch-10	    ch-11	    ch-11	    ch-11	    ch-12	    ch-12	    ch-12	    ch-13	    ch-13	    ch-13	    ch-14	    ch-14	    ch-14	    ch-15	    ch-15	    ch-15	    ch-16	    ch-16	    ch-16	    ch-17	    ch-17	    ch-17	    ch-18	    ch-18	    ch-18	    ch-19	    ch-19	    ch-19	    ch-20	    ch-20	    ch-20	    ch-21	    ch-21	    ch-21	    ch-22	    ch-22	    ch-22
Time(sec)	Task	Mark	Count	    oxyHb   	  deoxyHb	  totalHb	    oxyHb   	  deoxyHb	  totalHb	    oxyHb   	  deoxyHb	  totalHb	    oxyHb   	  deoxyHb	  totalHb	    oxyHb   	  deoxyHb	  totalHb	    oxyHb   	  deoxyHb	  totalHb	    oxyHb   	  deoxyHb	  totalHb	    oxyHb   	  deoxyHb	  totalHb	    oxyHb   	  deoxyHb	  totalHb	    oxyHb   	  deoxyHb	  totalHb	    oxyHb   	  deoxyHb	  totalHb	    oxyHb   	  deoxyHb	  totalHb	    oxyHb   	  deoxyHb	  totalHb	    oxyHb   	  deoxyHb	  totalHb	    oxyHb   	  deoxyHb	  totalHb	    oxyHb   	  deoxyHb	  totalHb	    oxyHb   	  deoxyHb	  totalHb	    oxyHb   	  deoxyHb	  totalHb	    oxyHb   	  deoxyHb	  totalHb	    oxyHb   	  deoxyHb	  totalHb	    oxyHb   	  deoxyHb	  totalHb	    oxyHb   	  deoxyHb	  totalHb
     0.000	0	0Z	    0	    0.000000	    0.000000	    0.000000	    0.000000	    0.000000	    0.000000	    0.000000	    0.000000	    0.000000	    0.000000	    0.000000	    0.000000	    0.000000	    0.000000	    0.000000	    0.000000	    0.000000	    0.000000	    0.000000	    0.000000	    0.000000	    0.000000	    0.000000	    0.000000	    0.000000	    0.000000	    0.000000	    0.000000	    0.000000	    0.000000	    0.000000	    0.000000	    0.000000	    0.000000	    0.000000	    0.000000	    0.000000	    0.000000	    0.000000	    0.000000	    0.000000	    0.000000	    0.000000	    0.000000	    0.000000	    0.000000	    0.000000	    0.000000	    0.000000	    0.000000	    0.000000	    0.000000	    0.000000	    0.000000	    0.000000	    0.000000	    0.000000	    0.000000	    0.000000	    0.000000	    0.000000	    0.000000	    0.000000	    0.000000	    0.000000	    0.000000
     0.075	0	0	    0	   -0.000340	   -0.000381	   -0.000721	    0.000543	   -0.001206	   -0.000663	    0.000368	   -0.000584	   -0.000215	    0.000090	   -0.000471	   -0.000381	   -0.000231	    0.000035	   -0.000196	   -0.000356	   -0.000156	   -0.000512	   -0.000884	    0.000640	   -0.000244	   -0.000946	    0.000922	   -0.000023	   -0.001687	    0.000387	   -0.001300	    0.000237	   -0.001223	   -0.000987	    0.000050	   -0.000436	   -0.000385	   -0.000338	   -0.000215	   -0.000553	   -0.000775	   -0.000639	   -0.001415	   -0.002425	    0.000647	   -0.001778	    0.002023	   -0.001990	    0.000033	   -0.000566	   -0.000084	   -0.000650	   -0.001902	    0.000561	   -0.001342	   -0.000622	   -0.000711	   -0.001333	   -0.000658	   -0.000829	   -0.001487	   -0.002076	    0.000037	   -0.002039	   -0.001606	    0.000511	   -0.001095	   -0.001128	    0.000832	   -0.000296
     0.150	0	0	    0	   -0.001667	    0.000865	   -0.000802	    0.000900	   -0.000851	    0.000050	    0.000598	    0.000010	    0.000608	   -0.000278	   -0.000373	   -0.000651	    0.000394	   -0.000196	    0.000199	    0.001204	   -0.001127	    0.000076	   -0.004092	    0.002518	   -0.001574	   -0.000426	    0.000512	    0.000086	   -0.001358	    0.000248	   -0.001110	    0.000574	   -0.001900	   -0.001326	   -0.000121	    0.000225	    0.000104	   -0.000037	   -0.000205	   -0.000242	    0.000111	   -0.000525	   -0.000414	   -0.003191	    0.002302	   -0.000888	   -0.000859	    0.000497	   -0.000362	   -0.000026	   -0.000410	   -0.000436	   -0.001479	    0.000409	   -0.001070	   -0.000860	   -0.000455	   -0.001315	   -0.001078	   -0.000035	   -0.001114	   -0.001931	    0.000731	   -0.001201	   -0.001584	    0.001285	   -0.000300	   -0.001447	    0.003192	    0.001745
     0.225	0	0	    0	   -0.001155	   -0.000094	   -0.001249	   -0.001375	   -0.000110	   -0.001486	   -0.000300	    0.000255	   -0.000045	   -0.000328	   -0.000481	   -0.000809	    0.000421	    0.000056	    0.000477	   -0.001111	    0.000622	   -0.000488	   -0.005973	    0.005471	   -0.000503	   -0.001081	    0.000609	   -0.000472	   -0.002280	   -0.000063	   -0.002344	   -0.001642	   -0.001132	   -0.002774	   -0.000702	   -0.000077	   -0.000779	   -0.000019	   -0.000568	   -0.000587	   -0.000980	   -0.000325	   -0.001305	   -0.004917	    0.001820	   -0.003097	    0.001220	   -0.000337	    0.000884	   -0.001175	    0.000128	   -0.001047	   -0.002853	   -0.000428	   -0.003281	   -0.003048	   -0.001053	   -0.004101	   -0.002613	   -0.000645	   -0.003257	   -0.003374	    0.000612	   -0.002761	   -0.000957	   -0.002030	   -0.002986	   -0.002278	    0.002838	    0.000560
     0.300	0	0	    0	   -0.002587	    0.000408	   -0.002179	   -0.002318	   -0.000754	   -0.003072	   -0.000637	   -0.000366	   -0.001002	   -0.000672	   -0.000825	   -0.001498	   -0.000436	   -0.000299	   -0.000736	   -0.001152	   -0.001208	   -0.002360	   -0.002863	   -0.000472	   -0.003335	   -0.002443	    0.001425	   -0.001018	   -0.004210	   -0.000052	   -0.004263	   -0.002565	   -0.002207	   -0.004772	   -0.002000	   -0.000177	   -0.002176	   -0.001747	   -0.000088	   -0.001835	   -0.003027	   -0.000275	   -0.003303	   -0.003863	   -0.000361	   -0.004224	   -0.002729	    0.001911	   -0.000817	   -0.002331	    0.000140	   -0.002191	   -0.004421	   -0.001904	   -0.006325	   -0.005438	   -0.001807	   -0.007245	   -0.004756	   -0.000946	   -0.005702	   -0.005417	   -0.000192	   -0.005609	   -0.003325	   -0.000836	   -0.004162	   -0.002537	    0.001776	   -0.000762
     0.375	0	0	    0	   -0.004030	    0.000191	   -0.003839	   -0.004606	   -0.000683	   -0.005289	   -0.002007	    0.000051	   -0.001956	   -0.001917	   -0.000153	   -0.002070	   -0.001968	    0.000069	   -0.001899	   -0.003179	   -0.000964	   -0.004143	   -0.006443	    0.000566	   -0.005878	   -0.002094	   -0.000084	   -0.002178	   -0.007374	    0.001082	   -0.006292	   -0.004456	   -0.003132	   -0.007588	   -0.003627	   -0.000071	   -0.003698	   -0.002699	    0.000037	   -0.002662	   -0.004814	   -0.001545	   -0.006359	   -0.008105	    0.001503	   -0.006603	   -0.002638	   -0.000236	   -0.002874	   -0.003407	    0.000052	   -0.003355	   -0.007749	   -0.001649	   -0.009398	   -0.008127	   -0.002187	   -0.010314	   -0.006610	   -0.001320	   -0.007930	   -0.007808	   -0.000149	   -0.007957	   -0.005283	   -0.000795	   -0.006078	   -0.008129	    0.005609	   -0.002519
     0.450	0	0	    0	   -0.006329	    0.000307	   -0.006022	   -0.006119	   -0.001649	   -0.007768	   -0.003676	   -0.000338	   -0.004014	   -0.002643	   -0.000628	   -0.003271	   -0.003225	   -0.000447	   -0.003672	   -0.004468	   -0.002528	   -0.006996	   -0.006062	   -0.001150	   -0.007212	   -0.004335	    0.001160	   -0.003175	   -0.008269	   -0.000017	   -0.008286	   -0.006557	   -0.002944	   -0.009501	   -0.005054	   -0.000625	   -0.005679	   -0.004218	   -0.000544	   -0.004762	   -0.008520	   -0.001118	   -0.009638	   -0.008146	   -0.000859	   -0.009005	   -0.002215	   -0.001729	   -0.003944	   -0.004841	   -0.000151	   -0.004992	   -0.009854	   -0.001863	   -0.011717	   -0.010698	   -0.002535	   -0.013233	   -0.008452	   -0.001874	   -0.010326	   -0.011026	   -0.000104	   -0.011131	   -0.007078	   -0.001204	   -0.008282	   -0.004177	    0.000300	   -0.003877
     0.525	0	0	    0	   -0.007246	   -0.001114	   -0.008360	   -0.009264	   -0.001629	   -0.010892	   -0.005116	   -0.000927	   -0.006043	   -0.004274	   -0.000181	   -0.004455	   -0.004712	   -0.001111	   -0.005823	   -0.007765	   -0.001898	   -0.009663	   -0.010077	    0.000799	   -0.009278	   -0.004875	    0.000365	   -0.004510	   -0.011876	    0.000605	   -0.011271	   -0.007370	   -0.003028	   -0.010399	   -0.006650	   -0.000986	   -0.007636	   -0.006213	   -0.000502	   -0.006715	   -0.009688	   -0.003412	   -0.013100	   -0.012939	    0.001319	   -0.011621	   -0.004369	   -0.000546	   -0.004915	   -0.006505	   -0.000101	   -0.006606	   -0.013934	   -0.002126	   -0.016060	   -0.014046	   -0.003369	   -0.017414	   -0.012272	   -0.002352	   -0.014623	   -0.013381	   -0.001373	   -0.014754	   -0.009766	   -0.001372	   -0.011137	   -0.006671	    0.000332	   -0.006339
     0.600	0	0	    0	   -0.010735	   -0.000674	   -0.011409	   -0.011134	   -0.002339	   -0.013473	   -0.006275	   -0.001054	   -0.007329	   -0.004874	   -0.001098	   -0.005972	   -0.005585	   -0.001664	   -0.007249	   -0.009098	   -0.003338	   -0.012436	   -0.009587	   -0.001860	   -0.011447	   -0.006112	    0.000186	   -0.005926	   -0.013668	   -0.000602	   -0.014270	   -0.008595	   -0.002693	   -0.011288	   -0.008255	   -0.001320	   -0.009575	   -0.006726	   -0.001389	   -0.008115	   -0.012549	   -0.001896	   -0.014445	   -0.012781	   -0.000285	   -0.013066	   -0.002774	   -0.002862	   -0.005636	   -0.007594	   -0.000891	   -0.008485	   -0.015939	   -0.003137	   -0.019076	   -0.016505	   -0.004785	   -0.021289	   -0.013993	   -0.003757	   -0.017750	   -0.015719	   -0.002769	   -0.018488	   -0.010171	   -0.002108	   -0.012278	   -0.009183	    0.002851	   -0.006332
     0.675	0	0	    0	   -0.010140	   -0.002524	   -0.012664	   -0.006190	   -0.004324	   -0.010514	   -0.005517	   -0.002761	   -0.008278	   -0.005745	   -0.001686	   -0.007430	   -0.006116	   -0.002285	   -0.008401	   -0.005203	   -0.004326	   -0.009529	   -0.004635	   -0.002610	   -0.007245	   -0.006502	   -0.001083	   -0.007585	   -0.012099	   -0.001576	   -0.013676	   -0.008279	   -0.004445	   -0.012723	   -0.006264	   -0.002438	   -0.008703	   -0.007100	   -0.002062	   -0.009161	   -0.009876	   -0.004720	   -0.014596	   -0.007728	   -0.003987	   -0.011714	    0.000819	   -0.003966	   -0.003147	   -0.005718	   -0.002086	   -0.007804	   -0.014423	   -0.005655	   -0.020077	   -0.005499	   -0.006362	   -0.011861	   -0.004912	   -0.004496	   -0.009408	   -0.013588	   -0.003765	   -0.017353	   -0.008574	   -0.004191	   -0.012765	   -0.003906	    0.000293	   -0.003613
     0.750	0	0	    0	   -0.002881	   -0.001889	   -0.004770	   -0.000070	   -0.000839	   -0.000909	   -0.004369	   -0.002910	   -0.007279	   -0.003750	   -0.001704	   -0.005454	   -0.002821	   -0.001822	   -0.004643	   -0.000801	   -0.002361	   -0.003162	   -0.004098	    0.003134	   -0.000964	   -0.003934	   -0.000728	   -0.004662	   -0.009007	    0.000207	   -0.008799	   -0.016512	   -0.003272	   -0.019784	   -0.004265	   -0.002739	   -0.007005	   -0.002778	   -0.002105	   -0.004884	   -0.004097	   -0.003384	   -0.007481	   -0.005064	    0.000420	   -0.004645	   -0.002489	    0.001454	   -0.001036	   -0.001076	   -0.000161	   -0.001237	   -0.015670	   -0.004720	   -0.020390	    0.007520	    0.001020	    0.008540	    0.001560	   -0.000067	    0.001493	   -0.006393	   -0.000339	   -0.006731	   -0.004429	   -0.001699	   -0.006129	   -0.004246	    0.003904	   -0.000342
     0.825	0	0	    0	    0.001566	    0.003118	    0.004684	    0.001826	    0.001567	    0.003393	   -0.003979	   -0.002725	   -0.006703	   -0.003522	   -0.001181	   -0.004703	   -0.001613	   -0.000933	   -0.002546	    0.000110	   -0.001465	   -0.001355	   -0.000750	    0.001092	    0.000342	   -0.004390	   -0.001081	   -0.005471	   -0.011420	   -0.005379	   -0.016798	   -0.022427	   -0.013164	   -0.035591	   -0.004569	   -0.003488	   -0.008056	   -0.002620	   -0.000768	   -0.003388	   -0.002435	   -0.003143	   -0.005578	   -0.003263	   -0.000485	   -0.003748	   -0.002090	    0.001314	   -0.000777	    0.001325	    0.001489	    0.002813	   -0.028395	   -0.018216	   -0.046611	    0.009873	    0.011280	    0.021153	    0.001363	    0.002916	    0.004280	   -0.004755	    0.000904	   -0.003850	   -0.003377	   -0.003202	   -0.006579	   -0.005935	    0.004959	   -0.000976
     0.900	0	0	    0	    0.001665	    0.006924	    0.008590	   -0.000376	    0.003239	    0.002862	   -0.004157	   -0.002456	   -0.006614	   -0.003474	   -0.001287	   -0.004761	   -0.001875	    0.000215	   -0.001660	   -0.000361	   -0.001161	   -0.001522	   -0.004700	    0.003266	   -0.001434	   -0.004418	   -0.002371	   -0.006789	   -0.011515	   -0.005407	   -0.016922	   -0.019318	   -0.014505	   -0.033823	   -0.004542	   -0.003435	   -0.007977	   -0.003386	   -0.000466	   -0.003852	   -0.003277	   -0.002447	   -0.005724	   -0.007028	    0.001605	   -0.005423	    0.000600	   -0.000697	   -0.000097	    0.001649	    0.002566	    0.004215	   -0.028541	   -0.024276	   -0.052817	    0.007206	    0.011135	    0.018341	   -0.000110	    0.002440	    0.002330	   -0.007478	    0.001786	   -0.005693	   -0.004534	   -0.003296	   -0.007830	   -0.004783	    0.002763	   -0.002020
     0.975	0	0	    0	    0.002612	    0.006238	    0.008850	    0.001445	    0.002410	    0.003856	   -0.003461	   -0.002206	   -0.005667	   -0.003832	   -0.001208	   -0.005040	   -0.001495	    0.000197	   -0.001299	    0.000181	   -0.001151	   -0.000970	   -0.004187	    0.002774	   -0.001412	   -0.004894	   -0.001306	   -0.006200	   -0.009998	   -0.004010	   -0.014008	   -0.016776	   -0.013758	   -0.030534	   -0.003828	   -0.003690	   -0.007518	   -0.003131	   -0.001084	   -0.004215	   -0.003393	   -0.002380	   -0.005773	   -0.003003	   -0.002656	   -0.005659	   -0.004203	    0.003589	   -0.000614	    0.002626	    0.002491	    0.005117	   -0.028472	   -0.022233	   -0.050705	    0.006083	    0.011034	    0.017117	   -0.000606	    0.002676	    0.002070	   -0.006956	    0.000387	   -0.006570	   -0.004994	   -0.003179	   -0.008173	   -0.005907	    0.003402	   -0.002505
     1.050	0	0	    0	    0.000675	    0.008690	    0.009365	    0.000352	    0.003541	    0.003893	   -0.003634	   -0.001597	   -0.005231	   -0.003875	   -0.001045	   -0.004920	   -0.000927	   -0.000303	   -0.001230	   -0.000075	   -0.001474	   -0.001549	   -0.003636	    0.002907	   -0.000729	   -0.006207	    0.000282	   -0.005925	   -0.009055	   -0.004420	   -0.013475	   -0.016581	   -0.011984	   -0.028565	   -0.004650	   -0.003527	   -0.008177	   -0.003956	   -0.000376	   -0.004332	   -0.003626	   -0.002249	   -0.005875	   -0.004664	   -0.000456	   -0.005120	    0.000727	   -0.000881	   -0.000154	    0.002046	    0.003552	    0.005599	   -0.029501	   -0.021326	   -0.050828	    0.003564	    0.010277	    0.013841	   -0.002639	    0.002400	   -0.000239	   -0.008219	    0.000776	   -0.007442	   -0.006521	   -0.001881	   -0.008402	   -0.008121	    0.003981	   -0.004141
     1.125	0	0	    0	    0.000355	    0.007068	    0.007423	   -0.000955	    0.003228	    0.002274	   -0.005317	   -0.001467	   -0.006783	   -0.004474	   -0.000851	   -0.005325	   -0.001769	   -0.000174	   -0.001943	   -0.001871	   -0.001376	   -0.003247	   -0.005194	    0.002867	   -0.002327	   -0.006478	    0.000112	   -0.006366	   -0.011252	   -0.003485	   -0.014737	   -0.017489	   -0.011588	   -0.029077	   -0.006565	   -0.003391	   -0.009956	   -0.004855	   -0.000668	   -0.005523	   -0.005163	   -0.002516	   -0.007679	   -0.008714	   -0.000021	   -0.008735	   -0.000488	    0.000424	   -0.000064	    0.001119	    0.003371	    0.004490	   -0.032001	   -0.019899	   -0.051900	    0.000551	    0.009651	    0.010202	   -0.005391	    0.001528	   -0.003863	   -0.010765	    0.000648	   -0.010117	   -0.005697	   -0.004797	   -0.010494	   -0.005261	   -0.001471	   -0.006732
     1.200	0	0	    0	   -0.002617	    0.007092	    0.004475	   -0.002993	    0.002358	   -0.000634	   -0.006103	   -0.001639	   -0.007742	   -0.005364	   -0.001053	   -0.006416	   -0.002954	   -0.000552	   -0.003506	   -0.003845	   -0.003156	   -0.007001	   -0.004577	   -0.004598	   -0.009174	   -0.007998	   -0.001722	   -0.009720	   -0.012251	   -0.004080	   -0.016331	   -0.016670	   -0.011382	   -0.028052	   -0.007378	   -0.003054	   -0.010432	   -0.006164	   -0.001312	   -0.007476	   -0.006708	   -0.003571	   -0.010279	   -0.009590	   -0.004482	   -0.014072	   -0.013481	    0.020202	    0.006722	    0.000257	    0.002224	    0.002481	   -0.032612	   -0.022047	   -0.054659	   -0.003199	    0.008811	    0.005612	   -0.008326	    0.000822	   -0.007503	   -0.014191	   -0.000758	   -0.014949	   -0.008318	   -0.004964	   -0.013282	   -0.006752	    0.005748	   -0.001004
     1.275	0	0	    0	   -0.003810	    0.007538	    0.003729	   -0.003911	    0.002156	   -0.001755	   -0.006419	   -0.001221	   -0.007639	   -0.004953	   -0.001529	   -0.006482	   -0.003909	    0.000249	   -0.003660	   -0.005891	   -0.001579	   -0.007470	   -0.009452	    0.001288	   -0.008164	   -0.007800	   -0.000130	   -0.007930	   -0.013710	   -0.001836	   -0.015546	   -0.017134	   -0.006733	   -0.023867	   -0.009118	   -0.002720	   -0.011839	   -0.006890	   -0.000018	   -0.006908	   -0.009187	   -0.001064	   -0.010251	   -0.013140	    0.000476	   -0.012664	   -0.006052	    0.004017	   -0.002035	   -0.001271	    0.003671	    0.002400	   -0.033772	   -0.019176	   -0.052948	   -0.008576	    0.005345	   -0.003231	   -0.012042	   -0.000882	   -0.012925	   -0.017745	   -0.000023	   -0.017769	   -0.011208	   -0.000603	   -0.011811	   -0.012705	    0.002036	   -0.010669
     1.350	0	0	    0	   -0.004974	    0.006317	    0.001343	   -0.006687	    0.002079	   -0.004608	   -0.008221	   -0.001298	   -0.009519	   -0.006094	   -0.001222	   -0.007316	   -0.004927	   -0.001024	   -0.005950	   -0.008215	   -0.002582	   -0.010798	   -0.010200	    0.000003	   -0.010196	   -0.008290	   -0.000538	   -0.008828	   -0.015948	   -0.002445	   -0.018393	   -0.017640	   -0.006401	   -0.024041	   -0.010742	   -0.003244	   -0.013986	   -0.007858	   -0.000929	   -0.008787	   -0.011700	   -0.001187	   -0.012887	   -0.013223	   -0.001543	   -0.014766	   -0.006879	    0.002728	   -0.004151	   -0.003370	    0.003469	    0.000099	   -0.035478	   -0.018741	   -0.054219	   -0.012239	    0.003615	   -0.008623	   -0.016642	   -0.002296	   -0.018938	   -0.020920	   -0.001610	   -0.022529	   -0.012055	   -0.002043	   -0.014098	   -0.013459	   -0.000792	   -0.014251
     1.425	0	0	    0	   -0.008328	    0.004953	   -0.003374	   -0.009764	    0.001434	   -0.008330	   -0.011348	   -0.000833	   -0.012181	   -0.006965	   -0.001241	   -0.008206	   -0.007048	   -0.000936	   -0.007984	   -0.011954	   -0.002732	   -0.014686	   -0.015920	    0.002211	   -0.013709	   -0.009400	    0.000341	   -0.009059	   -0.019091	   -0.003916	   -0.023007	   -0.020192	   -0.006420	   -0.026611	   -0.012991	   -0.003539	   -0.016531	   -0.008874	   -0.000405	   -0.009279	   -0.014797	   -0.001414	   -0.016211	   -0.018537	    0.000309	   -0.018228	   -0.005986	    0.000799	   -0.005187	   -0.005560	    0.002538	   -0.003022	   -0.040202	   -0.019735	   -0.059936	   -0.015069	    0.002081	   -0.012988	   -0.020680	   -0.005006	   -0.025686	   -0.024498	   -0.003746	   -0.028245	   -0.014736	   -0.000848	   -0.015584	   -0.010428	   -0.003128	   -0.013556
     1.500	0	0	    0	   -0.010632	    0.004466	   -0.006166	   -0.003947	   -0.001489	   -0.005436	   -0.008865	   -0.002946	   -0.011810	   -0.007595	   -0.002181	   -0.009776	   -0.007239	   -0.002161	   -0.009400	   -0.005380	   -0.006864	   -0.012244	   -0.007380	   -0.006174	   -0.013555	   -0.009641	    0.000952	   -0.008688	   -0.016116	   -0.006182	   -0.022298	   -0.012808	   -0.008064	   -0.020872	   -0.008576	   -0.004725	   -0.013302	   -0.008025	   -0.001132	   -0.009157	   -0.009553	   -0.003581	   -0.013135	   -0.011469	   -0.003045	   -0.014515	   -0.003677	   -0.001030	   -0.004706	   -0.002936	    0.000018	   -0.002919	   -0.035470	   -0.023911	   -0.059380	   -0.006126	    0.000651	   -0.005475	   -0.014056	   -0.006907	   -0.020962	   -0.020441	   -0.008143	   -0.028584	   -0.010196	   -0.003400	   -0.013596	   -0.009738	    0.002411	   -0.007327
     1.575	0	0	    0	   -0.005077	    0.002513	   -0.002563	    0.000938	    0.001982	    0.002920	   -0.005945	   -0.001195	   -0.007141	   -0.004867	   -0.002295	   -0.007162	   -0.002514	   -0.002033	   -0.004547	   -0.001745	   -0.003233	   -0.004978	   -0.007611	   -0.000835	   -0.008446	   -0.003597	   -0.001692	   -0.005289	   -0.011323	   -0.003720	   -0.015043	   -0.008887	   -0.004696	   -0.013584	   -0.005651	   -0.003189	   -0.008840	   -0.001502	   -0.000004	   -0.001505	   -0.001991	    0.000647	   -0.001344	   -0.008448	   -0.000109	   -0.008557	    0.003960	   -0.002255	    0.001705	    0.001800	    0.000373	    0.002173	   -0.030253	   -0.022622	   -0.052875	   -0.002072	    0.004675	    0.002603	   -0.012205	   -0.004701	   -0.016907	   -0.014663	   -0.003950	   -0.018612	   -0.004839	   -0.001602	   -0.006441	    0.000579	   -0.002249	   -0.001670
     1.650	0	0	    0	   -0.007008	    0.002718	   -0.004290	    0.000481	    0.002389	    0.002870	   -0.005851	   -0.001276	   -0.007126	   -0.004240	   -0.001411	   -0.005651	   -0.000026	   -0.001398	   -0.001425	   -0.000697	   -0.003125	   -0.003822	   -0.008318	    0.003590	   -0.004728	   -0.001671	    0.005487	    0.003816	   -0.008967	   -0.005014	   -0.013981	   -0.005640	   -0.002757	   -0.008397	   -0.006265	   -0.002352	   -0.008617	    0.000586	    0.001670	    0.002256	   -0.001158	    0.003077	    0.001919	   -0.004669	    0.002248	   -0.002420	   -0.005227	    0.026532	    0.021305	    0.018727	    0.005853	    0.024580	   -0.031140	   -0.022957	   -0.054097	   -0.002451	    0.003772	    0.001321	   -0.015590	   -0.006469	   -0.022059	   -0.014906	   -0.003298	   -0.018204	   -0.004680	   -0.001958	   -0.006637	    0.008754	    0.008724	    0.017479
     1.725	0	0	    0	   -0.008306	    0.003564	   -0.004742	    0.000835	   -0.000970	   -0.000135	   -0.005100	   -0.004729	   -0.009829	   -0.004629	   -0.001287	   -0.005916	    0.000638	   -0.000599	    0.000039	   -0.001107	   -0.008460	   -0.009567	    0.005087	   -0.020036	   -0.014949	   -0.006545	    0.018017	    0.011473	   -0.009818	   -0.002329	   -0.012147	   -0.003003	   -0.007496	   -0.010499	   -0.006148	   -0.003092	   -0.009240	    0.002204	    0.002875	    0.005079	   -0.001117	    0.004411	    0.003294	   -0.000941	   -0.004069	   -0.005010	   -0.009101	    0.032668	    0.023568	    0.021559	    0.019935	    0.041495	   -0.031478	   -0.023158	   -0.054636	   -0.006734	    0.002238	   -0.004497	   -0.020801	   -0.009406	   -0.030207	   -0.016247	   -0.005250	   -0.021497	   -0.003827	   -0.001355	   -0.005182	    0.014330	    0.008009	    0.022339
     1.800	0	0	    0	   -0.009277	    0.000960	   -0.008317	    0.001969	    0.000496	    0.002464	   -0.004210	   -0.001309	   -0.005519	   -0.004658	   -0.002539	   -0.007197	    0.002308	   -0.000915	    0.001393	   -0.002863	   -0.004209	   -0.007072	   -0.007200	    0.002179	   -0.005020	   -0.007024	    0.018304	    0.011280	   -0.010292	   -0.001611	   -0.011902	   -0.001027	   -0.000412	   -0.001438	   -0.005480	   -0.001899	   -0.007379	    0.004364	    0.004031	    0.008395	    0.001067	    0.004850	    0.005917	   -0.002393	    0.004812	    0.002419	   -0.008524	    0.033040	    0.024516	    0.019350	    0.020226	    0.039575	   -0.027350	   -0.020582	   -0.047931	   -0.009208	   -0.000322	   -0.009530	   -0.022146	   -0.012719	   -0.034865	   -0.017973	   -0.006845	   -0.024818	   -0.003426	   -0.000033	   -0.003459	    0.015211	    0.009174	    0.024385
     1.875	0	0	    0	   -0.010535	    0.001529	   -0.009006	    0.000671	    0.001051	    0.001722	   -0.004804	    0.000557	   -0.004247	   -0.005607	   -0.002784	   -0.008392	    0.002854	    0.000083	    0.002936	   -0.002961	   -0.003891	   -0.006852	   -0.012099	    0.002993	   -0.009105	   -0.008225	    0.015400	    0.007175	   -0.012047	   -0.002225	   -0.014272	   -0.000558	    0.000518	   -0.000040	   -0.006960	   -0.001515	   -0.008475	    0.004193	    0.005499	    0.009692	    0.001810	    0.008494	    0.010305	   -0.007292	    0.005781	   -0.001511	   -0.013229	    0.030290	    0.017061	    0.014879	    0.018813	    0.033692	   -0.028971	   -0.016929	   -0.045900	   -0.010714	   -0.001635	   -0.012349	   -0.024755	   -0.012482	   -0.037237	   -0.020605	   -0.007013	   -0.027619	   -0.005591	    0.001437	   -0.004154	    0.004354	    0.012668	    0.017022
     1.950	0	0	    0	   -0.012206	   -0.000392	   -0.012598	   -0.000987	    0.000435	   -0.000551	   -0.005078	    0.000886	   -0.004192	   -0.006473	   -0.004243	   -0.010716	    0.003337	    0.000143	    0.003480	   -0.004331	   -0.004910	   -0.009241	   -0.010846	   -0.001874	   -0.012720	   -0.008239	    0.012966	    0.004727	   -0.014257	   -0.004139	   -0.018396	   -0.001936	    0.000473	   -0.001463	   -0.007325	   -0.002360	   -0.009685	    0.003463	    0.005648	    0.009111	    0.000913	    0.009489	    0.010401	   -0.006889	    0.003938	   -0.002951	   -0.009328	    0.023235	    0.013906	    0.010482	    0.014374	    0.024856	   -0.031654	   -0.020370	   -0.052024	   -0.013779	   -0.003139	   -0.016918	   -0.026625	   -0.013698	   -0.040323	   -0.022376	   -0.009060	   -0.031436	   -0.007003	    0.000006	   -0.006997	    0.006773	    0.004638	    0.011411
     2.025	0	0	    0	   -0.014592	   -0.001538	   -0.016130	   -0.003509	   -0.001048	   -0.004558	   -0.006802	    0.000385	   -0.006417	   -0.007504	   -0.004256	   -0.011760	    0.002585	    0.001302	    0.003886	   -0.006195	   -0.005477	   -0.011673	   -0.011874	   -0.001873	   -0.013748	   -0.006971	    0.014224	    0.007253	   -0.016864	   -0.004483	   -0.021347	   -0.004143	    0.001629	   -0.002514	   -0.009993	   -0.001768	   -0.011760	    0.003648	    0.005544	    0.009193	   -0.000820	    0.010484	    0.009664	   -0.006854	    0.003196	   -0.003658	   -0.013371	    0.033360	    0.019989	    0.016706	    0.010659	    0.027365	   -0.035776	   -0.022043	   -0.057819	   -0.016699	   -0.004473	   -0.021172	   -0.031119	   -0.015192	   -0.046311	   -0.024444	   -0.010296	   -0.034740	   -0.007277	   -0.001111	   -0.008388	    0.008473	    0.008131	    0.016604
     2.100	0	0	    0	   -0.016946	   -0.001699	   -0.018645	   -0.006390	   -0.000820	   -0.007210	   -0.009551	    0.000481	   -0.009070	   -0.008187	   -0.004506	   -0.012693	    0.002740	    0.001356	    0.004096	   -0.008182	   -0.006213	   -0.014395	   -0.018060	    0.002545	   -0.015515	   -0.007509	    0.021771	    0.014263	   -0.016818	   -0.003570	   -0.020389	   -0.005151	    0.001176	   -0.003975	   -0.012081	   -0.002073	   -0.014154	    0.002871	    0.006120	    0.008991	   -0.002447	    0.010982	    0.008536	   -0.004859	    0.005882	    0.001023	   -0.015017	    0.037760	    0.022743	    0.021382	    0.024251	    0.045633	   -0.036936	   -0.024393	   -0.061328	   -0.020845	   -0.005624	   -0.026469	   -0.035856	   -0.017716	   -0.053572	   -0.027324	   -0.011835	   -0.039160	   -0.008636	   -0.000466	   -0.009102	    0.005810	    0.012191	    0.018001
     2.175	0	0	    0	   -0.017420	   -0.003362	   -0.020782	   -0.007754	   -0.001461	   -0.009215	   -0.010378	   -0.001088	   -0.011466	   -0.009926	   -0.004947	   -0.014873	    0.001233	    0.002558	    0.003791	   -0.009162	   -0.005938	   -0.015100	   -0.016796	   -0.002455	   -0.019252	   -0.013533	    0.022616	    0.009083	   -0.019759	    0.000335	   -0.019423	   -0.006580	    0.001187	   -0.005394	   -0.013836	   -0.001898	   -0.015735	    0.001650	    0.007177	    0.008827	   -0.003029	    0.013473	    0.010444	   -0.008692	    0.011077	    0.002384	   -0.013138	    0.028814	    0.015676	    0.012376	    0.020246	    0.032622	   -0.035755	   -0.020464	   -0.056220	   -0.023124	   -0.005930	   -0.029053	   -0.037763	   -0.018071	   -0.055834	   -0.029691	   -0.012907	   -0.042598	   -0.009452	    0.002436	   -0.007016	    0.000392	    0.010335	    0.010727
     2.250	0	0	    0	   -0.018070	   -0.002967	   -0.021037	   -0.006570	   -0.002205	   -0.008775	   -0.010259	   -0.002396	   -0.012655	   -0.010766	   -0.005718	   -0.016484	   -0.000256	    0.002069	    0.001813	   -0.007665	   -0.007491	   -0.015155	   -0.015980	   -0.003757	   -0.019736	   -0.012478	    0.015900	    0.003422	   -0.021483	   -0.004840	   -0.026323	   -0.006009	   -0.000657	   -0.006666	   -0.011756	   -0.003990	   -0.015746	    0.000609	    0.006522	    0.007131	   -0.003901	    0.013882	    0.009981	   -0.008104	    0.003378	   -0.004726	   -0.006152	    0.018950	    0.012798	    0.011453	    0.016698	    0.028150	   -0.039743	   -0.022206	   -0.061949	   -0.017412	   -0.007634	   -0.025046	   -0.032300	   -0.019704	   -0.052004	   -0.029835	   -0.014131	   -0.043966	   -0.011306	    0.002462	   -0.008844	    0.003870	    0.007566	    0.011435
     2.325	0	0	    0	   -0.013718	   -0.004402	   -0.018121	    0.001836	   -0.001328	    0.000508	   -0.005836	   -0.002113	   -0.007949	   -0.009314	   -0.006286	   -0.015601	    0.004492	    0.002084	    0.006577	   -0.001011	   -0.004882	   -0.005893	   -0.012512	   -0.001232	   -0.013744	   -0.008891	    0.016120	    0.007229	   -0.013110	   -0.004690	   -0.017800	    0.001508	    0.000877	    0.002385	   -0.007221	   -0.003115	   -0.010335	    0.005142	    0.005921	    0.011063	    0.008122	    0.014484	    0.022607	   -0.004611	    0.006640	    0.002029	   -0.007476	    0.023334	    0.015858	    0.016971	    0.015048	    0.032018	   -0.032485	   -0.023540	   -0.056024	   -0.010024	   -0.004485	   -0.014509	   -0.027107	   -0.016909	   -0.044016	   -0.020754	   -0.013274	   -0.034028	   -0.001745	   -0.000388	   -0.002134	    0.003274	    0.008701	    0.011976
     2.400	0	0	    0	   -0.012188	   -0.002773	   -0.014961	    0.003114	   -0.000163	    0.002951	   -0.003375	   -0.001444	   -0.004818	   -0.007298	   -0.006142	   -0.013440	    0.007867	    0.002681	    0.010548	    0.001749	   -0.004674	   -0.002925	   -0.011081	   -0.001113	   -0.012195	   -0.006872	    0.021308	    0.014435	   -0.010382	   -0.002660	   -0.013042	    0.004490	    0.002631	    0.007121	   -0.006135	   -0.001013	   -0.007148	    0.007828	    0.006825	    0.014654	    0.010093	    0.018330	    0.028423	    0.001544	    0.005708	    0.007252	   -0.010447	    0.031634	    0.021187	    0.024151	    0.020054	    0.044205	   -0.028607	   -0.024309	   -0.052916	   -0.011949	   -0.003700	   -0.015649	   -0.029912	   -0.016677	   -0.046589	   -0.020404	   -0.010778	   -0.031181	    0.000287	    0.001505	    0.001792	    0.011970	    0.008748	    0.020717
     2.475	0	0	    0	   -0.012690	   -0.003827	   -0.016517	    0.004180	   -0.001063	    0.003117	   -0.003056	   -0.000317	   -0.003372	   -0.007558	   -0.005590	   -0.013148	    0.007772	    0.004539	    0.012310	    0.001118	   -0.002796	   -0.001678	   -0.012272	   -0.002165	   -0.014437	   -0.009172	    0.020796	    0.011624	   -0.011824	    0.000679	   -0.011145	    0.004361	    0.003957	    0.008318	   -0.006352	   -0.000547	   -0.006900	    0.008355	    0.008208	    0.016563	    0.010379	    0.019821	    0.030200	   -0.003525	    0.008961	    0.005437	   -0.008656	    0.026525	    0.017869	    0.018347	    0.019676	    0.038023	   -0.025732	   -0.019177	   -0.044909	   -0.013919	   -0.006223	   -0.020143	   -0.031522	   -0.018645	   -0.050167	   -0.020907	   -0.011540	   -0.032447	    0.000875	    0.003566	    0.004440	    0.007331	    0.006789	    0.014119
     2.550	0	0	    0	   -0.013811	   -0.003257	   -0.017068	    0.003663	   -0.000360	    0.003304	   -0.002243	   -0.000291	   -0.002533	   -0.007696	   -0.005881	   -0.013576	    0.007884	    0.003924	    0.011808	    0.001838	   -0.003208	   -0.001370	   -0.014520	   -0.001224	   -0.015744	   -0.008800	    0.018508	    0.009707	   -0.012799	   -0.001246	   -0.014045	    0.002804	    0.004537	    0.007341	   -0.006638	   -0.000932	   -0.007570	    0.008445	    0.008228	    0.016673	    0.009556	    0.018967	    0.028523	   -0.005141	    0.006519	    0.001378	   -0.004684	    0.020234	    0.015550	    0.017057	    0.017551	    0.034609	   -0.027447	   -0.018898	   -0.046345	   -0.013273	   -0.006539	   -0.019812	   -0.031706	   -0.019293	   -0.050999	   -0.021527	   -0.011739	   -0.033266	   -0.000913	    0.003968	    0.003056	    0.004699	    0.009330	    0.014029
     2.625	0	0	    0	   -0.011290	   -0.004395	   -0.015685	    0.004270	    0.001688	    0.005959	   -0.002885	    0.000956	   -0.001929	   -0.007759	   -0.006363	   -0.014122	    0.008036	    0.005063	    0.013100	    0.001194	   -0.001905	   -0.000711	   -0.016231	   -0.002061	   -0.018293	   -0.007680	    0.017165	    0.009485	   -0.017283	   -0.003061	   -0.020344	   -0.006142	   -0.000156	   -0.006297	   -0.007947	   -0.001105	   -0.009052	    0.007822	    0.008707	    0.016529	    0.009236	    0.019428	    0.028663	   -0.005702	    0.006532	    0.000830	   -0.009851	    0.023067	    0.013216	    0.014815	    0.015553	    0.030368	   -0.036613	   -0.022679	   -0.059293	   -0.008535	   -0.002866	   -0.011401	   -0.029877	   -0.018753	   -0.048630	   -0.022239	   -0.011907	   -0.034146	   -0.001819	    0.003783	    0.001964	    0.002759	    0.005244	    0.008003
     2.700	0	0	    0	   -0.011285	   -0.000452	   -0.011737	    0.004037	    0.003194	    0.007231	   -0.001114	    0.000332	   -0.000782	   -0.008346	   -0.006165	   -0.014511	    0.005950	    0.004660	    0.010610	   -0.000421	   -0.002334	   -0.002755	   -0.014742	   -0.003740	   -0.018482	   -0.010146	    0.016303	    0.006157	   -0.018211	   -0.007819	   -0.026030	   -0.012139	   -0.006734	   -0.018873	   -0.007917	   -0.002707	   -0.010624	    0.005853	    0.007806	    0.013659	    0.004773	    0.018744	    0.023517	   -0.006920	    0.004070	   -0.002850	   -0.005455	    0.017403	    0.011948	    0.013987	    0.013169	    0.027156	   -0.043330	   -0.030629	   -0.073959	   -0.009448	    0.003605	   -0.005843	   -0.030377	   -0.015267	   -0.045643	   -0.022144	   -0.011292	   -0.033436	   -0.004305	    0.001068	   -0.003237	    0.000211	    0.005557	    0.005768
     2.775	0	0	    0	   -0.013245	    0.000203	   -0.013042	    0.001794	    0.002098	    0.003891	   -0.002506	    0.000913	   -0.001593	   -0.008897	   -0.005669	   -0.014567	    0.005458	    0.003705	    0.009163	   -0.003044	   -0.001384	   -0.004428	   -0.016680	   -0.003988	   -0.020668	   -0.010896	    0.016630	    0.005734	   -0.019799	   -0.007387	   -0.027185	   -0.008015	   -0.004264	   -0.012279	   -0.008974	   -0.002484	   -0.011458	    0.005197	    0.007247	    0.012444	    0.004437	    0.016993	    0.021429	   -0.008826	    0.006275	   -0.002551	   -0.009271	    0.019601	    0.010330	    0.012678	    0.012471	    0.025149	   -0.041638	   -0.031412	   -0.073050	   -0.014881	   -0.000180	   -0.015061	   -0.033811	   -0.016668	   -0.050479	   -0.024806	   -0.010945	   -0.035751	   -0.005020	    0.000081	   -0.004939	   -0.000913	    0.005122	    0.004210
     2.850	0	0	    0	   -0.015813	   -0.000722	   -0.016535	   -0.000301	    0.001818	    0.001517	   -0.003819	    0.000260	   -0.003558	   -0.009481	   -0.005411	   -0.014892	    0.003583	    0.004206	    0.007789	   -0.005161	   -0.002100	   -0.007261	   -0.016572	   -0.004923	   -0.021495	   -0.010511	    0.014966	    0.004455	   -0.020536	   -0.006642	   -0.027178	   -0.009967	   -0.002940	   -0.012907	   -0.010661	   -0.002323	   -0.012984	    0.004368	    0.006937	    0.011305	    0.000632	    0.018563	    0.019195	   -0.010157	    0.005316	   -0.004841	   -0.007849	    0.018168	    0.010319	    0.011126	    0.011407	    0.022533	   -0.042452	   -0.029641	   -0.072093	   -0.017644	   -0.002431	   -0.020075	   -0.035352	   -0.017720	   -0.053072	   -0.028330	   -0.010922	   -0.039252	   -0.007028	    0.000885	   -0.006143	   -0.002307	    0.004123	    0.001816
     2.925	0	0	    0	   -0.016757	   -0.001679	   -0.018436	   -0.003235	    0.001675	   -0.001559	   -0.007067	    0.001010	   -0.006057	   -0.009706	   -0.005692	   -0.015398	    0.001914	    0.002964	    0.004879	   -0.007227	   -0.003175	   -0.010402	   -0.019688	   -0.004589	   -0.024278	   -0.012215	    0.016547	    0.004332	   -0.022319	   -0.005796	   -0.028115	   -0.012099	   -0.000803	   -0.012902	   -0.013382	   -0.002474	   -0.015856	    0.002430	    0.007212	    0.009642	   -0.002099	    0.017020	    0.014920	   -0.013464	    0.005672	   -0.007792	   -0.008343	    0.018597	    0.010254	    0.009353	    0.011522	    0.020875	   -0.044104	   -0.028357	   -0.072461	   -0.019246	   -0.004422	   -0.023668	   -0.035640	   -0.019083	   -0.054723	   -0.030150	   -0.012175	   -0.042326	   -0.009984	    0.001631	   -0.008353	   -0.004843	    0.006178	    0.001335
     3.000	0	0	    0	   -0.014735	   -0.002636	   -0.017370	   -0.008318	    0.003964	   -0.004354	   -0.010135	   -0.000995	   -0.011130	   -0.011214	   -0.005110	   -0.016324	   -0.003560	    0.002592	   -0.000968	   -0.008915	   -0.003179	   -0.012094	   -0.006563	   -0.006375	   -0.012938	   -0.013532	    0.014921	    0.001389	   -0.026649	   -0.007283	   -0.033931	   -0.091506	    0.008742	   -0.082763	   -0.049263	   -0.005451	   -0.054714	   -0.007667	    0.008935	    0.001267	   -0.023750	    0.019595	   -0.004155	   -0.013993	    0.003484	   -0.010509	   -0.008660	    0.016807	    0.008147	    0.012511	    0.009027	    0.021538	   -0.058421	   -0.026272	   -0.084693	    0.051184	    0.005284	    0.056468	    0.063012	   -0.021613	    0.041399	   -0.021912	   -0.014049	   -0.035962	   -0.014676	   -0.000779	   -0.015455	    0.000544	    0.001338	    0.001882
     3.075	0	0	    0	    0.028405	    0.011761	    0.040166	   -0.039225	    0.005788	   -0.033437	   -0.064001	   -0.015897	   -0.079898	   -0.078210	    0.013330	   -0.064880	   -0.080465	    0.007452	   -0.073012	   -0.072093	    0.032968	   -0.039125	    0.045733	    0.019650	    0.065383	   -0.017009	    0.011441	   -0.005568	   -0.026880	   -0.020744	   -0.047624	   -0.169513	   -0.093024	   -0.262538	   -0.079585	   -0.070835	   -0.150421	   -0.119415	   -0.027435	   -0.146850	   -0.092350	   -0.029931	   -0.122281	   -0.015458	   -0.004330	   -0.019788	   -0.012350	    0.016556	    0.004206	    0.020402	    0.014667	    0.035069	   -0.062870	   -0.039737	   -0.102607	    0.096613	    0.095123	    0.191737	    0.176017	    0.115191	    0.291208	    0.014729	    0.012634	    0.027363	   -0.016052	   -0.018640	   -0.034692	    0.002162	    0.007058	    0.009220
     3.150	0	0	    0	    0.041299	    0.061817	    0.103116	   -0.046626	   -0.006870	   -0.053496	   -0.075714	    0.012976	   -0.062739	   -0.079255	    0.018368	   -0.060887	   -0.234741	   -0.072004	   -0.306746	   -0.139687	   -0.027323	   -0.167010	    0.056970	    0.055668	    0.112638	   -0.014736	    0.006914	   -0.007823	   -0.014751	   -0.017427	   -0.032178	   -0.171773	   -0.117068	   -0.288841	   -0.055174	   -0.057700	   -0.112875	   -0.155492	   -0.107577	   -0.263070	   -0.130921	   -0.105558	   -0.236478	   -0.017971	   -0.011908	   -0.029879	   -0.018114	    0.030136	    0.012022	    0.023027	    0.023864	    0.046891	   -0.057643	   -0.034695	   -0.092338	    0.088851	    0.127200	    0.216051	    0.157957	    0.180080	    0.338037	    0.019104	    0.041869	    0.060972	   -0.016823	   -0.021148	   -0.037971	    0.005819	    0.012581	    0.018400
     3.225	0	0	    0	    0.017880	    0.067540	    0.085420	   -0.022170	   -0.014581	   -0.036752	   -0.025861	    0.007891	   -0.017970	   -0.045460	    0.018184	   -0.027277	   -0.150689	   -0.139247	   -0.289935	   -0.030014	   -0.026791	   -0.056805	    0.020383	    0.044453	    0.064837	   -0.017557	    0.007993	   -0.009564	   -0.014199	   -0.014069	   -0.028267	   -0.076158	   -0.116496	   -0.192653	   -0.008407	   -0.020397	   -0.028805	   -0.108569	   -0.138297	   -0.246866	   -0.057596	   -0.093192	   -0.150788	   -0.010928	   -0.014765	   -0.025693	   -0.008465	    0.011063	    0.002598	    0.017194	    0.023465	    0.040659	   -0.045345	   -0.025466	   -0.070811	    0.024573	    0.080692	    0.105265	    0.024551	    0.087422	    0.111973	   -0.007560	    0.042964	    0.035404	   -0.015666	   -0.022467	   -0.038133	    0.001115	    0.001009	    0.002123
     3.300	0	0	    0	    0.007231	    0.021490	    0.028722	   -0.025931	   -0.006397	   -0.032327	   -0.030014	   -0.006628	   -0.036642	   -0.016918	    0.008104	   -0.008815	   -0.073250	   -0.045143	   -0.118393	   -0.029014	   -0.004917	   -0.033931	    0.030565	    0.014409	    0.044974	   -0.014300	    0.004443	   -0.009857	   -0.012818	   -0.011800	   -0.024619	   -0.116498	   -0.036192	   -0.152690	   -0.035868	   -0.013011	   -0.048879	   -0.054164	   -0.037819	   -0.091984	   -0.057379	   -0.019105	   -0.076484	   -0.008672	   -0.012783	   -0.021455	   -0.007282	    0.013239	    0.005956	    0.017194	    0.015638	    0.032832	   -0.043096	   -0.016680	   -0.059776	    0.070537	    0.054004	    0.124541	    0.110804	    0.044599	    0.155402	   -0.005381	    0.010356	    0.004975	   -0.016072	   -0.011525	   -0.027597	    0.003660	    0.000875	    0.004534
     3.375	0	0	    0	    0.032113	    0.028658	    0.060772	   -0.043681	   -0.003863	   -0.047544	   -0.063003	    0.003683	   -0.059320	   -0.049772	    0.021820	   -0.027952	   -0.137265	   -0.038561	   -0.175826	   -0.081269	    0.017780	   -0.063488	    0.056457	    0.037271	    0.093728	   -0.014359	    0.005082	   -0.009277	   -0.018655	   -0.013161	   -0.031816	   -0.192926	   -0.097146	   -0.290072	   -0.073315	   -0.054016	   -0.127331	   -0.133730	   -0.062838	   -0.196568	   -0.108627	   -0.045639	   -0.154266	   -0.011223	   -0.008784	   -0.020007	   -0.011179	    0.015629	    0.004450	    0.020584	    0.019003	    0.039587	   -0.059176	   -0.025126	   -0.084303	    0.092957	    0.106435	    0.199392	    0.172360	    0.130003	    0.302363	    0.003673	    0.025773	    0.029446	   -0.026802	   -0.015539	   -0.042341	    0.000744	    0.006928	    0.007672
     3.450	0	0	    0	    0.048326	    0.061550	    0.109876	   -0.062689	   -0.004801	   -0.067490	   -0.104464	    0.022347	   -0.082117	   -0.085459	    0.026151	   -0.059308	   -0.241617	   -0.079192	   -0.320808	   -0.183435	   -0.014380	   -0.197815	    0.064506	    0.066930	    0.131436	   -0.015660	    0.004982	   -0.010677	   -0.024247	   -0.018405	   -0.042652	   -0.214021	   -0.139164	   -0.353186	   -0.103552	   -0.057693	   -0.161246	   -0.166364	   -0.114596	   -0.280961	   -0.160837	   -0.080127	   -0.240964	   -0.019324	   -0.005229	   -0.024553	   -0.007413	    0.008398	    0.000985	    0.022022	    0.021979	    0.044001	   -0.068853	   -0.027872	   -0.096725	    0.102726	    0.133909	    0.236635	    0.196650	    0.181121	    0.377771	    0.008550	    0.041480	    0.050031	   -0.030319	   -0.025656	   -0.055976	    0.002222	    0.002907	    0.005129
     3.525	0	0	    0	    0.052776	    0.078815	    0.131591	   -0.068301	   -0.008585	   -0.076886	   -0.105701	    0.016970	   -0.088731	   -0.106407	    0.032597	   -0.073810	   -0.191247	   -0.190150	   -0.381398	   -0.156126	   -0.042788	   -0.198913	    0.055669	    0.075335	    0.131004	   -0.015625	    0.001043	   -0.014582	   -0.024920	   -0.018429	   -0.043349	   -0.224006	   -0.146373	   -0.370378	   -0.091866	   -0.065078	   -0.156944	   -0.169477	   -0.130709	   -0.300185	   -0.111162	   -0.156639	   -0.267801	   -0.018790	   -0.006741	   -0.025531	   -0.008235	    0.010580	    0.002344	    0.022536	    0.026622	    0.049159	   -0.078374	   -0.025554	   -0.103928	    0.086282	    0.136859	    0.223141	    0.170852	    0.184490	    0.355342	   -0.000840	    0.048912	    0.048072	   -0.034619	   -0.027257	   -0.061875	    0.001970	    0.000183	    0.002153
     3.600	0	0	    0	    0.046735	    0.077528	    0.124263	   -0.069483	   -0.011514	   -0.080997	   -0.090684	    0.013572	   -0.077112	   -0.082977	    0.026619	   -0.056359	   -0.217797	   -0.128444	   -0.346241	   -0.129693	   -0.020497	   -0.150189	    0.053568	    0.065606	    0.119174	   -0.016861	   -0.002724	   -0.019585	   -0.028897	   -0.019641	   -0.048538	   -0.228166	   -0.149782	   -0.377948	   -0.082449	   -0.058416	   -0.140865	   -0.161981	   -0.131123	   -0.293105	   -0.138850	   -0.085674	   -0.224524	   -0.017626	   -0.008588	   -0.026214	   -0.008575	    0.012347	    0.003772	    0.022796	    0.024947	    0.047743	   -0.084652	   -0.029646	   -0.114299	    0.077570	    0.130523	    0.208093	    0.161831	    0.170397	    0.332229	   -0.008886	    0.044452	    0.035566	   -0.036737	   -0.024265	   -0.061002	    0.003960	   -0.001861	    0.002100
     3.675	0	0	    0	    0.042679	    0.073509	    0.116188	   -0.069026	   -0.012354	   -0.081380	   -0.071056	    0.008853	   -0.062203	   -0.068428	    0.029437	   -0.038991	   -0.210703	   -0.112270	   -0.322973	   -0.098089	   -0.013946	   -0.112035	    0.049492	    0.059875	    0.109367	   -0.017941	   -0.001926	   -0.019866	   -0.030820	   -0.019853	   -0.050673	   -0.228406	   -0.148235	   -0.376640	   -0.072961	   -0.047512	   -0.120473	   -0.158923	   -0.128727	   -0.287650	   -0.125469	   -0.086591	   -0.212060	   -0.013602	   -0.006952	   -0.020554	   -0.003837	    0.010798	    0.006962	    0.027671	    0.027340	    0.055011	   -0.087720	   -0.030559	   -0.118279	    0.065898	    0.119229	    0.185127	    0.142302	    0.152212	    0.294514	   -0.014496	    0.042819	    0.028323	   -0.036716	   -0.023424	   -0.060140	    0.007394	   -0.001582	    0.005812
     3.750	0	0	    0	    0.039678	    0.063490	    0.103168	   -0.067572	   -0.013687	   -0.081259	   -0.068725	    0.008413	   -0.060311	   -0.060353	    0.030294	   -0.030060	   -0.198528	   -0.103346	   -0.301874	   -0.088296	   -0.005870	   -0.094166	    0.057759	    0.053713	    0.111472	   -0.018869	   -0.001506	   -0.020375	   -0.029799	   -0.023302	   -0.053101	   -0.228898	   -0.148452	   -0.377350	   -0.073990	   -0.045994	   -0.119984	   -0.153756	   -0.121657	   -0.275413	   -0.120822	   -0.077132	   -0.197954	   -0.005704	   -0.011755	   -0.017459	   -0.010134	    0.032898	    0.022765	    0.029440	    0.030686	    0.060126	   -0.084842	   -0.032670	   -0.117511	    0.072494	    0.118034	    0.190529	    0.155320	    0.147067	    0.302387	   -0.012290	    0.035757	    0.023467	   -0.031863	   -0.024323	   -0.056186	    0.016407	    0.004173	    0.020580
     3.825	0	0	    0	    0.043487	    0.062926	    0.106413	   -0.064523	   -0.011332	   -0.075855	   -0.070889	    0.011599	   -0.059290	   -0.061407	    0.031782	   -0.029625	   -0.201437	   -0.099980	   -0.301416	   -0.091746	   -0.000051	   -0.091797	    0.058231	    0.061316	    0.119546	   -0.016527	    0.000214	   -0.016313	   -0.023996	   -0.020168	   -0.044164	   -0.226528	   -0.146193	   -0.372721	   -0.080656	   -0.044074	   -0.124730	   -0.154844	   -0.121751	   -0.276594	   -0.119929	   -0.072166	   -0.192095	   -0.008715	   -0.006032	   -0.014746	   -0.014066	    0.033872	    0.019806	    0.032538	    0.034479	    0.067017	   -0.076685	   -0.030158	   -0.106843	    0.081324	    0.121254	    0.202578	    0.169875	    0.151426	    0.321301	   -0.002355	    0.039581	    0.037226	   -0.028245	   -0.019479	   -0.047724	    0.013165	    0.004569	    0.017734
     3.900	0	0	    0	    0.050269	    0.065701	    0.115970	   -0.070475	   -0.008878	   -0.079353	   -0.094594	    0.021664	   -0.072930	   -0.084986	    0.038684	   -0.046302	   -0.226976	   -0.098651	   -0.325627	   -0.139303	    0.006437	   -0.132865	    0.070025	    0.068909	    0.138934	   -0.015560	    0.000541	   -0.015020	   -0.020501	   -0.019343	   -0.039844	   -0.235686	   -0.146372	   -0.382058	   -0.111309	   -0.051429	   -0.162738	   -0.173223	   -0.124718	   -0.297941	   -0.142624	   -0.075132	   -0.217756	   -0.011102	   -0.003779	   -0.014880	   -0.012071	    0.028651	    0.016579	    0.034321	    0.034315	    0.068636	   -0.076763	   -0.028633	   -0.105397	    0.095858	    0.128109	    0.223968	    0.197422	    0.171177	    0.368599	    0.000160	    0.044806	    0.044966	   -0.031688	   -0.022689	   -0.054377	    0.014636	    0.004182	    0.018818
     3.975	0	0	    0	    0.056074	    0.077404	    0.133477	   -0.075634	   -0.009448	   -0.085082	   -0.120682	    0.024440	   -0.096241	   -0.121844	    0.032990	   -0.088854	   -0.191627	   -0.196862	   -0.388489	   -0.199289	   -0.036881	   -0.236170	    0.082818	    0.087206	    0.170024	   -0.011280	   -0.000147	   -0.011426	   -0.021651	   -0.014482	   -0.036133	   -0.241029	   -0.152868	   -0.393897	   -0.148802	   -0.028924	   -0.177726	   -0.197665	   -0.142157	   -0.339822	   -0.109526	   -0.195371	   -0.304896	   -0.008164	   -0.004834	   -0.012998	   -0.010939	    0.028049	    0.017110	    0.043809	    0.038012	    0.081820	   -0.077855	   -0.024719	   -0.102573	    0.096723	    0.143874	    0.240597	    0.196254	    0.200881	    0.397135	   -0.001102	    0.052483	    0.051381	   -0.036259	   -0.028008	   -0.064267	    0.014914	    0.009493	    0.024407
     4.050	0	0	    0	    0.053963	    0.082806	    0.136769	   -0.072374	   -0.010265	   -0.082639	   -0.068780	   -0.000372	   -0.069152	   -0.116570	    0.025158	   -0.091413	   -0.169157	   -0.234907	   -0.404063	   -0.099778	   -0.072578	   -0.172356	    0.062831	    0.091253	    0.154084	   -0.014039	    0.004592	   -0.009447	   -0.024033	   -0.012611	   -0.036644	   -0.235948	   -0.156106	   -0.392054	   -0.051810	   -0.072694	   -0.124504	   -0.197312	   -0.152636	   -0.349947	   -0.069072	   -0.234224	   -0.303296	   -0.009355	   -0.005587	   -0.014942	   -0.012459	    0.028742	    0.016283	    0.041064	    0.048866	    0.089930	   -0.082435	   -0.022112	   -0.104546	    0.054578	    0.141444	    0.196022	    0.107108	    0.197735	    0.304843	   -0.009300	    0.056053	    0.046753	   -0.037515	   -0.029422	   -0.066936	    0.010813	    0.006902	    0.017715
     4.125	0	0	    0	    0.008451	    0.059034	    0.067485	   -0.044106	   -0.011956	   -0.056062	   -0.051932	   -0.021894	   -0.073825	   -0.026900	    0.012623	   -0.014277	   -0.092400	   -0.099872	   -0.192271	   -0.028175	   -0.005193	   -0.033368	    0.030075	    0.042478	    0.072553	   -0.018696	    0.001722	   -0.016975	   -0.014334	   -0.025233	   -0.039567	   -0.109541	   -0.099822	   -0.209363	   -0.034144	   -0.031637	   -0.065781	   -0.073804	   -0.114534	   -0.188338	   -0.066058	   -0.056164	   -0.122222	   -0.003019	   -0.009795	   -0.012814	   -0.008790	    0.027841	    0.019050	    0.024610	    0.034763	    0.059374	   -0.049741	   -0.029417	   -0.079159	    0.020976	    0.055086	    0.076061	    0.046849	    0.056158	    0.103007	   -0.028789	    0.030587	    0.001799	   -0.019202	   -0.016317	   -0.035519	    0.009669	    0.003876	    0.013545
     4.200	0	0	    0	    0.008319	    0.017525	    0.025844	   -0.056492	   -0.009511	   -0.066002	   -0.046785	   -0.031579	   -0.078363	   -0.017967	   -0.000607	   -0.018574	   -0.092434	   -0.044930	   -0.137364	   -0.037491	    0.002691	   -0.034800	    0.043647	    0.032132	    0.075779	   -0.019624	    0.001357	   -0.018267	   -0.018933	   -0.013573	   -0.032506	   -0.172627	   -0.060383	   -0.233009	   -0.055826	   -0.034211	   -0.090037	   -0.085291	   -0.052491	   -0.137782	   -0.095250	   -0.023753	   -0.119003	   -0.010295	   -0.002974	   -0.013269	   -0.008304	    0.025710	    0.017406	    0.021002	    0.020350	    0.041352	   -0.062567	   -0.015398	   -0.077965	    0.054803	    0.067183	    0.121987	    0.107136	    0.068605	    0.175741	   -0.017341	    0.017612	    0.000271	   -0.024914	   -0.005896	   -0.030810	    0.009390	    0.000545	    0.009934
     4.275	0	0	    0	    0.025458	    0.030031	    0.055490	   -0.063185	   -0.006719	   -0.069904	   -0.063394	   -0.012076	   -0.075470	   -0.037603	    0.007044	   -0.030559	   -0.133070	   -0.054980	   -0.188050	   -0.060780	    0.007033	   -0.053747	    0.057262	    0.047734	    0.104996	   -0.017150	    0.000087	   -0.017062	   -0.029087	   -0.018056	   -0.047143	   -0.220119	   -0.113186	   -0.333306	   -0.083003	   -0.057748	   -0.140751	   -0.137477	   -0.083021	   -0.220499	   -0.123224	   -0.055657	   -0.178881	   -0.009365	   -0.004466	   -0.013832	   -0.009889	    0.026812	    0.016923	    0.022959	    0.020687	    0.043646	   -0.080414	   -0.024876	   -0.105290	    0.066287	    0.107830	    0.174117	    0.138316	    0.125863	    0.264179	   -0.014147	    0.033482	    0.019335	   -0.032992	   -0.013579	   -0.046571	    0.010253	    0.002757	    0.013011
     4.350	0	0	    0	    0.031485	    0.050541	    0.082026	   -0.069733	   -0.003034	   -0.072767	   -0.070966	   -0.006265	   -0.077231	   -0.054852	    0.003028	   -0.051825	   -0.144947	   -0.068818	   -0.213765	   -0.074084	    0.009672	   -0.064412	    0.061543	    0.056352	    0.117895	   -0.018299	    0.001390	   -0.016909	   -0.027809	   -0.021191	   -0.049000	   -0.228441	   -0.125503	   -0.353944	   -0.098015	   -0.058192	   -0.156207	   -0.149773	   -0.113337	   -0.263110	   -0.129102	   -0.067060	   -0.196162	   -0.010998	   -0.005253	   -0.016251	   -0.014036	    0.028140	    0.014104	    0.024781	    0.023981	    0.048762	   -0.085080	   -0.030643	   -0.115722	    0.069371	    0.114736	    0.184108	    0.152571	    0.136264	    0.288835	   -0.018886	    0.043042	    0.024156	   -0.037922	   -0.018474	   -0.056396	    0.009099	    0.001150	    0.010250
     4.425	0	0	    0	    0.039724	    0.058376	    0.098099	   -0.074225	   -0.003968	   -0.078193	   -0.080073	    0.004813	   -0.075260	   -0.080572	    0.004502	   -0.076070	   -0.193771	   -0.077452	   -0.271223	   -0.120014	    0.001924	   -0.118090	    0.076903	    0.069200	    0.146103	   -0.017224	   -0.000157	   -0.017381	   -0.031402	   -0.020472	   -0.051874	   -0.237573	   -0.137051	   -0.374624	   -0.107872	   -0.055671	   -0.163543	   -0.181482	   -0.131600	   -0.313082	   -0.161439	   -0.075646	   -0.237085	   -0.005873	   -0.007353	   -0.013226	   -0.004552	    0.032590	    0.028038	    0.025022	    0.024321	    0.049343	   -0.086835	   -0.030227	   -0.117062	    0.077945	    0.127624	    0.205569	    0.170852	    0.163463	    0.334315	   -0.016315	    0.047397	    0.031082	   -0.042760	   -0.023076	   -0.065836	    0.028808	    0.005353	    0.034161
     4.500	0	0	    0	    0.046776	    0.064443	    0.111220	   -0.070898	   -0.000837	   -0.071735	   -0.077666	    0.012818	   -0.064849	   -0.094066	    0.011249	   -0.082817	   -0.230141	   -0.107607	   -0.337749	   -0.139720	   -0.013311	   -0.153031	    0.089383	    0.087637	    0.177020	   -0.015121	   -0.001010	   -0.016132	   -0.022553	   -0.018220	   -0.040773	   -0.233129	   -0.138223	   -0.371352	   -0.081053	   -0.069396	   -0.150449	   -0.200611	   -0.153588	   -0.354200	   -0.168807	   -0.096229	   -0.265037	    0.005711	   -0.000868	    0.004843	    0.008271	    0.033335	    0.041605	    0.038741	    0.028666	    0.067407	   -0.080655	   -0.024241	   -0.104896	    0.083473	    0.136274	    0.219747	    0.171428	    0.180565	    0.351993	   -0.008869	    0.055827	    0.046959	   -0.039156	   -0.027775	   -0.066931	    0.038678	    0.021904	    0.060582
     4.575	0	0	    0	    0.038444	    0.067309	    0.105752	   -0.062065	   -0.004804	   -0.066868	   -0.048021	    0.007190	   -0.040832	   -0.073351	    0.005030	   -0.068322	   -0.211707	   -0.129185	   -0.340892	   -0.078150	   -0.024102	   -0.102252	    0.073714	    0.079993	    0.153708	   -0.011292	    0.004907	   -0.006385	   -0.022908	   -0.013472	   -0.036380	   -0.193684	   -0.136339	   -0.330023	   -0.046116	   -0.044089	   -0.090205	   -0.185864	   -0.164704	   -0.350568	   -0.141460	   -0.108087	   -0.249547	    0.000141	    0.002784	    0.002925	   -0.013260	    0.042306	    0.029045	    0.037730	    0.042475	    0.080205	   -0.065064	   -0.025238	   -0.090302	    0.061898	    0.117673	    0.179571	    0.116730	    0.147744	    0.264474	   -0.014657	    0.059228	    0.044570	   -0.036060	   -0.026177	   -0.062237	    0.022685	    0.017209	    0.039894
     4.650	0	0	    0	    0.023177	    0.041907	    0.065084	   -0.062558	   -0.000967	   -0.063525	   -0.055013	   -0.007045	   -0.062058	   -0.040624	    0.003979	   -0.036645	   -0.149661	   -0.084261	   -0.233922	   -0.066230	    0.002035	   -0.064195	    0.065033	    0.059104	    0.124138	   -0.014759	    0.004594	   -0.010166	   -0.023923	   -0.018957	   -0.042881	   -0.208656	   -0.103730	   -0.312385	   -0.056373	   -0.041982	   -0.098355	   -0.138836	   -0.118266	   -0.257102	   -0.123598	   -0.069317	   -0.192915	   -0.005309	   -0.005639	   -0.010948	   -0.015658	    0.036669	    0.021011	    0.036166	    0.034856	    0.071022	   -0.061336	   -0.015224	   -0.076560	    0.067317	    0.108701	    0.176019	    0.128461	    0.118528	    0.246989	   -0.012254	    0.044754	    0.032501	   -0.032011	   -0.020776	   -0.052786	    0.017291	    0.009462	    0.026754
     4.725	0	0	    0	    0.031503	    0.041081	    0.072584	   -0.063317	   -0.000120	   -0.063437	   -0.056398	   -0.006486	   -0.062884	   -0.037369	    0.005475	   -0.031895	   -0.152292	   -0.076798	   -0.229090	   -0.059754	    0.000894	   -0.058860	    0.066310	    0.056466	    0.122775	   -0.014461	    0.003694	   -0.010766	   -0.025241	   -0.021311	   -0.046552	   -0.210858	   -0.115026	   -0.325884	   -0.055656	   -0.039669	   -0.095325	   -0.143001	   -0.109282	   -0.252283	   -0.119921	   -0.070367	   -0.190288	   -0.003012	   -0.004800	   -0.007812	   -0.012336	    0.036017	    0.023680	    0.037341	    0.035381	    0.072722	   -0.068146	   -0.021571	   -0.089717	    0.067971	    0.112882	    0.180853	    0.126059	    0.121086	    0.247145	   -0.012183	    0.049438	    0.037256	   -0.030579	   -0.020405	   -0.050984	    0.021185	    0.005778	    0.026963
     4.800	0	0	    0	    0.030337	    0.045833	    0.076170	   -0.065058	    0.003349	   -0.061708	   -0.052903	   -0.008331	   -0.061234	   -0.035392	    0.003998	   -0.031394	   -0.144311	   -0.072641	   -0.216952	   -0.058655	    0.004849	   -0.053806	    0.066120	    0.058384	    0.124504	   -0.007505	    0.002938	   -0.004567	   -0.024378	   -0.020900	   -0.045278	   -0.214964	   -0.113745	   -0.328709	   -0.054275	   -0.042459	   -0.096734	   -0.136945	   -0.106443	   -0.243388	   -0.120297	   -0.061339	   -0.181636	    0.000239	   -0.004335	   -0.004097	    0.001231	    0.035779	    0.037011	    0.051860	    0.037681	    0.089541	   -0.072935	   -0.020296	   -0.093231	    0.066983	    0.116987	    0.183970	    0.128979	    0.123592	    0.252571	   -0.009068	    0.048946	    0.039878	   -0.031287	   -0.017343	   -0.048630	    0.036317	    0.008094	    0.044411
     4.875	0	0	    0	    0.032880	    0.047158	    0.080037	   -0.069222	    0.006146	   -0.063076	   -0.058499	   -0.000318	   -0.058817	   -0.038109	    0.006904	   -0.031205	   -0.147306	   -0.068474	   -0.215780	   -0.070214	    0.011237	   -0.058978	    0.076839	    0.058957	    0.135796	    0.000423	    0.002304	    0.002727	   -0.024373	   -0.016949	   -0.041322	   -0.233353	   -0.114863	   -0.348216	   -0.096670	   -0.046512	   -0.143181	   -0.143248	   -0.104120	   -0.247368	   -0.132458	   -0.056251	   -0.188708	    0.001482	   -0.001914	   -0.000432	    0.015203	    0.034799	    0.050002	    0.061482	    0.053866	    0.115348	   -0.078564	   -0.022518	   -0.101081	    0.080360	    0.122316	    0.202676	    0.170561	    0.136281	    0.306842	   -0.010503	    0.052081	    0.041577	   -0.034970	   -0.018256	   -0.053226	    0.045518	    0.020896	    0.066414
     4.950	0	0	    0	    0.044824	    0.057114	    0.101938	   -0.081975	    0.007541	   -0.074433	   -0.100190	    0.030090	   -0.070100	   -0.099053	    0.013855	   -0.085198	   -0.225546	   -0.069835	   -0.295381	   -0.157877	    0.022394	   -0.135483	    0.097619	    0.084014	    0.181633	    0.006765	    0.001240	    0.008005	   -0.017727	   -0.011571	   -0.029298	   -0.246442	   -0.128170	   -0.374612	   -0.156467	   -0.023706	   -0.180173	   -0.207071	   -0.137214	   -0.344285	   -0.179572	   -0.069469	   -0.249041	    0.003460	    0.006908	    0.010368	    0.010751	    0.048643	    0.059394	    0.076725	    0.069093	    0.145818	   -0.078389	   -0.020300	   -0.098689	    0.106718	    0.143090	    0.249808	    0.214526	    0.193523	    0.408049	   -0.008329	    0.056351	    0.048022	   -0.038580	   -0.019844	   -0.058423	    0.053982	    0.033026	    0.087007
     5.025	0	0	    0	    0.052656	    0.071658	    0.124313	   -0.093511	    0.004489	   -0.089021	   -0.149326	    0.053833	   -0.095493	   -0.167822	    0.029310	   -0.138511	   -0.176917	   -0.230754	   -0.407671	   -0.231303	   -0.034182	   -0.265485	    0.102744	    0.106122	    0.208866	   -0.001462	    0.002324	    0.000861	   -0.021352	   -0.003483	   -0.024834	   -0.254974	   -0.135272	   -0.390246	   -0.223021	    0.016039	   -0.206982	   -0.220306	   -0.151898	   -0.372205	   -0.114643	   -0.219233	   -0.333876	   -0.012259	    0.011690	   -0.000569	   -0.011315	    0.042700	    0.031385	    0.061197	    0.078677	    0.139874	   -0.075077	   -0.012129	   -0.087207	    0.108198	    0.165884	    0.274083	    0.203557	    0.223199	    0.426756	   -0.010784	    0.064258	    0.053474	   -0.037986	   -0.018549	   -0.056535	    0.035157	    0.021584	    0.056741
     5.100	0	0	    0	    0.050187	    0.077866	    0.128053	   -0.095955	    0.002489	   -0.093466	   -0.148187	    0.045354	   -0.102833	   -0.184073	    0.029123	   -0.154950	   -0.216262	   -0.215523	   -0.431786	   -0.231397	   -0.074663	   -0.306060	    0.100270	    0.106729	    0.206999	   -0.012164	   -0.000219	   -0.012384	   -0.021857	   -0.002907	   -0.024764	   -0.258227	   -0.137842	   -0.396069	   -0.229159	    0.018439	   -0.210720	   -0.235439	   -0.145699	   -0.381139	   -0.133045	   -0.231138	   -0.364183	   -0.012739	    0.002479	   -0.010260	   -0.000727	    0.034496	    0.033769	    0.056568	    0.062094	    0.118662	   -0.079902	   -0.006316	   -0.086218	    0.089284	    0.166115	    0.255399	    0.176928	    0.217505	    0.394433	   -0.020572	    0.067087	    0.046515	   -0.043491	   -0.015769	   -0.059260	    0.036343	    0.009542	    0.045885
     5.175	0	0	    0	    0.047610	    0.068705	    0.116315	   -0.088145	    0.002290	   -0.085855	   -0.100602	    0.033489	   -0.067113	   -0.161632	    0.022651	   -0.138981	   -0.205818	   -0.220153	   -0.425970	   -0.177004	   -0.067430	   -0.244435	    0.104685	    0.104226	    0.208911	   -0.005538	   -0.004044	   -0.009582	   -0.013069	   -0.004807	   -0.017877	   -0.248240	   -0.135664	   -0.383904	   -0.140807	   -0.035395	   -0.176202	   -0.229362	   -0.153950	   -0.383312	   -0.112544	   -0.234009	   -0.346553	    0.001840	    0.006034	    0.007874	    0.012368	    0.049639	    0.062007	    0.073251	    0.061250	    0.134501	   -0.069591	   -0.006954	   -0.076545	    0.079205	    0.158977	    0.238182	    0.159335	    0.204993	    0.364328	   -0.017999	    0.065098	    0.047099	   -0.038649	   -0.018663	   -0.057312	    0.056873	    0.020152	    0.077025
     5.250	0	0	    0	    0.029366	    0.055829	    0.085195	   -0.074020	    0.001379	   -0.072641	   -0.061960	    0.010672	   -0.051287	   -0.078572	    0.010453	   -0.068119	   -0.198657	   -0.172162	   -0.370819	   -0.060670	   -0.016601	   -0.077271	    0.083502	    0.082198	    0.165700	   -0.003632	    0.002001	   -0.001631	   -0.019202	   -0.005364	   -0.024565	   -0.224835	   -0.125219	   -0.350053	   -0.077463	   -0.066753	   -0.144216	   -0.185989	   -0.168446	   -0.354435	   -0.145415	   -0.093453	   -0.238868	    0.006994	    0.004761	    0.011755	    0.001909	    0.057771	    0.059680	    0.070445	    0.069482	    0.139927	   -0.062469	   -0.003372	   -0.065841	    0.062445	    0.126602	    0.189047	    0.111866	    0.142166	    0.254032	   -0.021339	    0.060901	    0.039562	   -0.034309	   -0.018082	   -0.052392	    0.040630	    0.029356	    0.069986
     5.325	0	0	    0	    0.028554	    0.040610	    0.069164	   -0.073294	    0.006428	   -0.066866	   -0.056792	   -0.011444	   -0.068236	   -0.046346	    0.010112	   -0.036233	   -0.169068	   -0.081173	   -0.250241	   -0.053319	    0.004065	   -0.049254	    0.082459	    0.061644	    0.144103	   -0.010453	    0.003406	   -0.007048	   -0.021139	   -0.009263	   -0.030402	   -0.228033	   -0.113295	   -0.341328	   -0.083187	   -0.063521	   -0.146708	   -0.141308	   -0.106054	   -0.247362	   -0.128530	   -0.056923	   -0.185454	    0.006945	    0.003925	    0.010870	   -0.004576	    0.049884	    0.045308	    0.063636	    0.063768	    0.127405	   -0.060456	   -0.006865	   -0.067321	    0.068894	    0.123037	    0.191931	    0.127662	    0.124115	    0.251777	   -0.015106	    0.052046	    0.036939	   -0.025280	   -0.008498	   -0.033778	    0.036083	    0.015331	    0.051414
     5.400	0	0	    0	    0.030783	    0.041687	    0.072471	   -0.074007	    0.010007	   -0.064000	   -0.057847	   -0.006834	   -0.064681	   -0.050046	    0.010517	   -0.039530	   -0.174599	   -0.074090	   -0.248690	   -0.055294	    0.007027	   -0.048267	    0.080516	    0.063867	    0.144383	   -0.012689	    0.002284	   -0.010405	   -0.022828	   -0.009668	   -0.032495	   -0.230060	   -0.113924	   -0.343984	   -0.080232	   -0.067120	   -0.147353	   -0.150689	   -0.098880	   -0.249570	   -0.133595	   -0.057725	   -0.191320	    0.009148	    0.000616	    0.009764	   -0.000272	    0.043239	    0.042967	    0.059855	    0.054958	    0.114813	   -0.063149	   -0.005983	   -0.069132	    0.069659	    0.128431	    0.198090	    0.127964	    0.136607	    0.264571	   -0.012407	    0.055428	    0.043021	   -0.026371	   -0.006870	   -0.033241	    0.030720	    0.014003	    0.044723
     5.475	0	0	    0	    0.029593	    0.042848	    0.072441	   -0.074758	    0.013068	   -0.061690	   -0.053599	   -0.008804	   -0.062403	   -0.046886	    0.007801	   -0.039085	   -0.168414	   -0.076019	   -0.244433	   -0.055658	    0.009539	   -0.046119	    0.081942	    0.060097	    0.142039	   -0.011805	    0.001329	   -0.010476	   -0.021174	   -0.009646	   -0.030819	   -0.225715	   -0.110742	   -0.336457	   -0.079419	   -0.065103	   -0.144523	   -0.143448	   -0.103384	   -0.246833	   -0.130139	   -0.052187	   -0.182327	    0.003482	    0.006780	    0.010262	   -0.005993	    0.045310	    0.039318	    0.058061	    0.054042	    0.112103	   -0.060388	   -0.006162	   -0.066550	    0.069642	    0.128486	    0.198128	    0.133456	    0.134811	    0.268266	   -0.010488	    0.057164	    0.046676	   -0.026002	   -0.005720	   -0.031722	    0.027907	    0.009722	    0.037629
     5.550	0	0	    0	    0.029136	    0.042182	    0.071318	   -0.076353	    0.015308	   -0.061045	   -0.054194	   -0.002577	   -0.056771	   -0.053467	    0.008216	   -0.045251	   -0.175378	   -0.076079	   -0.251458	   -0.062024	    0.012967	   -0.049057	    0.077955	    0.070956	    0.148911	   -0.014317	    0.000295	   -0.014022	   -0.026651	   -0.002365	   -0.029016	   -0.231179	   -0.105784	   -0.336962	   -0.081595	   -0.067565	   -0.149160	   -0.155194	   -0.107479	   -0.262674	   -0.137302	   -0.052469	   -0.189770	    0.001723	    0.009495	    0.011218	   -0.007767	    0.040565	    0.032798	    0.047712	    0.055259	    0.102971	   -0.063309	    0.003328	   -0.059981	    0.072176	    0.132032	    0.204208	    0.140119	    0.143394	    0.283513	   -0.015575	    0.068563	    0.052989	   -0.029662	   -0.001815	   -0.031477	    0.024520	    0.007284	    0.031805
     5.625	0	0	    0	    0.028662	    0.044765	    0.073428	   -0.077157	    0.016117	   -0.061040	   -0.051414	   -0.001154	   -0.052568	   -0.058502	    0.008135	   -0.050368	   -0.178609	   -0.077874	   -0.256483	   -0.062665	    0.009872	   -0.052793	    0.081771	    0.064898	    0.146670	   -0.015863	    0.000370	   -0.015493	   -0.023766	   -0.008658	   -0.032424	   -0.224745	   -0.107147	   -0.331892	   -0.078162	   -0.066424	   -0.144587	   -0.163053	   -0.115955	   -0.279008	   -0.138337	   -0.060389	   -0.198725	    0.004088	    0.003563	    0.007651	   -0.005564	    0.039790	    0.034226	    0.048855	    0.044486	    0.093341	   -0.061671	   -0.002273	   -0.063943	    0.064217	    0.134652	    0.198869	    0.132239	    0.148965	    0.281204	   -0.015117	    0.062611	    0.047494	   -0.030187	   -0.008836	   -0.039023	    0.024829	    0.007773	    0.032602
     5.700	0	0	    0	    0.021802	    0.042370	    0.064172	   -0.077717	    0.016138	   -0.061578	   -0.045258	   -0.001725	   -0.046983	   -0.045834	    0.004213	   -0.041621	   -0.163419	   -0.077353	   -0.240772	   -0.053938	    0.008293	   -0.045645	    0.070131	    0.064331	    0.134461	   -0.017025	    0.003149	   -0.013876	   -0.021472	   -0.008397	   -0.029869	   -0.154698	   -0.101130	   -0.255829	   -0.052636	   -0.057874	   -0.110511	   -0.142261	   -0.118483	   -0.260744	   -0.122499	   -0.054606	   -0.177105	   -0.003592	    0.006019	    0.002428	    0.001101	    0.040058	    0.041160	    0.049234	    0.043573	    0.092806	   -0.059973	   -0.000682	   -0.060655	    0.020062	    0.116366	    0.136429	    0.074229	    0.129398	    0.203628	   -0.022233	    0.063198	    0.040965	   -0.035550	   -0.007696	   -0.043246	    0.037518	    0.005851	    0.043369
     5.775	0	0	    0	    0.007654	    0.026957	    0.034611	   -0.082011	    0.008772	   -0.073240	   -0.051298	   -0.014512	   -0.065810	   -0.030540	    0.004772	   -0.025767	   -0.134247	   -0.053582	   -0.187830	   -0.056776	    0.015896	   -0.040880	    0.071664	    0.051858	    0.123522	   -0.018997	    0.002359	   -0.016638	   -0.023512	   -0.001239	   -0.024752	   -0.174082	   -0.034509	   -0.208591	   -0.064783	   -0.044964	   -0.109747	   -0.122048	   -0.081450	   -0.203497	   -0.134319	   -0.029219	   -0.163538	   -0.007460	    0.004177	   -0.003283	   -0.003339	    0.046884	    0.043545	    0.044516	    0.037894	    0.082410	   -0.051586	    0.004120	   -0.047466	    0.045539	    0.083915	    0.129453	    0.107243	    0.094997	    0.202240	   -0.025366	    0.049387	    0.024021	   -0.037038	   -0.007309	   -0.044347	    0.033540	    0.011612	    0.045151
     5.850	0	0	    0	    0.015291	    0.029664	    0.044955	   -0.074412	    0.011153	   -0.063259	   -0.045668	   -0.008806	   -0.054475	   -0.036773	   -0.000867	   -0.037640	   -0.146937	   -0.061246	   -0.208183	   -0.051849	    0.011303	   -0.040546	    0.079882	    0.061599	    0.141481	   -0.016521	    0.000995	   -0.015525	   -0.017631	   -0.005221	   -0.022852	   -0.160141	   -0.062012	   -0.222153	   -0.049690	   -0.048199	   -0.097889	   -0.145903	   -0.103935	   -0.249838	   -0.132928	   -0.057336	   -0.190265	    0.006636	    0.003202	    0.009838	    0.000934	    0.047545	    0.048479	    0.047129	    0.037626	    0.084755	   -0.045449	   -0.006977	   -0.052426	    0.043461	    0.100367	    0.143829	    0.096600	    0.117812	    0.214411	   -0.017549	    0.058473	    0.040924	   -0.034105	   -0.015323	   -0.049428	    0.038961	    0.016196	    0.055157
     5.925	0	0	    0	    0.008404	    0.028957	    0.037361	   -0.073218	    0.008454	   -0.064764	   -0.046049	   -0.014689	   -0.060738	   -0.020138	   -0.005539	   -0.025677	   -0.107755	   -0.065776	   -0.173531	   -0.036801	    0.016041	   -0.020760	    0.069747	    0.052627	    0.122374	   -0.013502	    0.003743	   -0.009759	   -0.012470	    0.002247	   -0.010223	   -0.118893	   -0.014962	   -0.133856	   -0.046469	   -0.033838	   -0.080307	   -0.083391	   -0.104761	   -0.188152	   -0.084273	   -0.025211	   -0.109485	    0.005141	    0.010988	    0.016129	    0.003248	    0.049256	    0.052504	    0.048213	    0.037313	    0.085526	   -0.030372	    0.004871	   -0.025501	    0.041269	    0.066843	    0.108112	    0.084520	    0.067923	    0.152443	   -0.016565	    0.052168	    0.035603	   -0.022500	   -0.006071	   -0.028571	    0.042192	    0.016715	    0.058907
     6.000	0	0	    0	    0.018543	    0.021173	    0.039715	   -0.076926	    0.014237	   -0.062688	   -0.035796	   -0.005327	   -0.041123	   -0.031841	    0.004282	   -0.027559	   -0.136526	   -0.030362	   -0.166888	   -0.063375	    0.022649	   -0.040727	    0.093447	    0.059977	    0.153425	   -0.011476	    0.001910	   -0.009566	   -0.022695	   -0.000808	   -0.023503	   -0.207740	   -0.040435	   -0.248176	   -0.080271	   -0.047471	   -0.127742	   -0.140452	   -0.054461	   -0.194913	   -0.148564	   -0.029441	   -0.178005	    0.006387	    0.008553	    0.014939	    0.006047	    0.047798	    0.053845	    0.052625	    0.036213	    0.088838	   -0.047595	    0.003787	   -0.043807	    0.084486	    0.109056	    0.193542	    0.152229	    0.120649	    0.272877	   -0.004152	    0.058256	    0.054104	   -0.032920	   -0.006333	   -0.039253	    0.046181	    0.022933	    0.069114
     6.075	0	0	    0	    0.035429	    0.043114	    0.078543	   -0.079947	    0.020485	   -0.059463	   -0.047934	    0.005157	   -0.042776	   -0.071787	   -0.000167	   -0.071954	   -0.179104	   -0.061265	   -0.240370	   -0.085519	    0.014787	   -0.070732	    0.105345	    0.075755	    0.181100	   -0.009732	    0.003053	   -0.006679	   -0.023376	   -0.009641	   -0.033016	   -0.221789	   -0.092070	   -0.313859	   -0.079385	   -0.068932	   -0.148317	   -0.181486	   -0.127037	   -0.308523	   -0.164097	   -0.063797	   -0.227894	    0.009776	    0.005392	    0.015168	    0.023650	    0.044364	    0.068015	    0.060418	    0.041292	    0.101711	   -0.059803	   -0.002952	   -0.062755	    0.084224	    0.140759	    0.224983	    0.155407	    0.162531	    0.317938	   -0.006106	    0.075414	    0.069308	   -0.039274	   -0.015014	   -0.054289	    0.064577	    0.025440	    0.090017
     6.150	0	0	    0	    0.035211	    0.054615	    0.089825	   -0.081752	    0.023446	   -0.058306	   -0.046743	    0.012358	   -0.034385	   -0.072828	   -0.004225	   -0.077053	   -0.183935	   -0.076598	   -0.260534	   -0.089885	    0.011518	   -0.078367	    0.114607	    0.082074	    0.196681	    0.004313	    0.000158	    0.004471	   -0.019467	   -0.007089	   -0.026555	   -0.223976	   -0.093104	   -0.317080	   -0.083262	   -0.065535	   -0.148797	   -0.184241	   -0.141140	   -0.325381	   -0.168315	   -0.066248	   -0.234564	    0.017443	    0.007243	    0.024686	    0.030849	    0.068486	    0.099335	    0.082042	    0.056879	    0.138921	   -0.065303	   -0.004699	   -0.070002	    0.087130	    0.141021	    0.228151	    0.161357	    0.160847	    0.322203	   -0.009807	    0.077337	    0.067529	   -0.045881	   -0.020075	   -0.065956	    0.085271	    0.038389	    0.123660
     6.225	0	0	    0	    0.042013	    0.057059	    0.099072	   -0.086436	    0.025264	   -0.061172	   -0.054658	    0.017320	   -0.037337	   -0.086593	   -0.000110	   -0.086703	   -0.210064	   -0.080733	   -0.290796	   -0.110530	    0.005625	   -0.104905	    0.117292	    0.093306	    0.210598	    0.008448	    0.011662	    0.020109	   -0.018778	   -0.005479	   -0.024258	   -0.234867	   -0.099850	   -0.334718	   -0.081217	   -0.069343	   -0.150560	   -0.204229	   -0.146667	   -0.350897	   -0.184062	   -0.074392	   -0.258454	    0.017709	    0.013412	    0.031121	    0.032765	    0.081758	    0.114523	    0.090515	    0.075291	    0.165806	   -0.068535	   -0.004413	   -0.072948	    0.088452	    0.151613	    0.240065	    0.163945	    0.176339	    0.340284	   -0.011416	    0.081263	    0.069848	   -0.047501	   -0.019587	   -0.067088	    0.089321	    0.047219	    0.136540
     6.300	0	0	    0	    0.033342	    0.065621	    0.098963	   -0.085650	    0.024345	   -0.061306	   -0.044101	    0.018684	   -0.025416	   -0.074012	   -0.007104	   -0.081116	   -0.198173	   -0.101524	   -0.299698	   -0.066887	   -0.007121	   -0.074008	    0.096118	    0.090507	    0.186625	    0.004122	    0.023055	    0.027177	   -0.022022	   -0.003214	   -0.025237	   -0.196538	   -0.098656	   -0.295194	   -0.058322	   -0.052195	   -0.110517	   -0.193982	   -0.162280	   -0.356262	   -0.158722	   -0.088248	   -0.246971	    0.016176	    0.011799	    0.027974	    0.028087	    0.084473	    0.112560	    0.082936	    0.081322	    0.164257	   -0.060337	   -0.010753	   -0.071090	    0.053569	    0.136190	    0.189759	    0.105147	    0.150603	    0.255750	   -0.021704	    0.081864	    0.060160	   -0.049003	   -0.020916	   -0.069920	    0.072832	    0.049284	    0.122116
     6.375	0	0	    0	    0.016185	    0.040676	    0.056862	   -0.087117	    0.021338	   -0.065778	   -0.040076	   -0.000083	   -0.040159	   -0.046028	   -0.006594	   -0.052622	   -0.153596	   -0.061315	   -0.214911	   -0.074839	    0.016419	   -0.058420	    0.100363	    0.074228	    0.174591	   -0.001500	    0.025123	    0.023623	   -0.024076	   -0.001825	   -0.025902	   -0.214176	   -0.054850	   -0.269026	   -0.074870	   -0.055319	   -0.130189	   -0.159207	   -0.112973	   -0.272180	   -0.163349	   -0.046496	   -0.209845	    0.010124	    0.012420	    0.022544	    0.026497	    0.085808	    0.112305	    0.082145	    0.070226	    0.152371	   -0.058016	    0.006073	   -0.051944	    0.072432	    0.122151	    0.194583	    0.139193	    0.132570	    0.271762	   -0.020905	    0.069236	    0.048331	   -0.048824	   -0.014817	   -0.063641	    0.077544	    0.042496	    0.120040
     6.450	0	0	    0	    0.025714	    0.046873	    0.072587	   -0.092285	    0.026733	   -0.065551	   -0.051225	    0.013889	   -0.037336	   -0.065782	   -0.002839	   -0.068622	   -0.176782	   -0.064957	   -0.241739	   -0.094238	    0.017091	   -0.077148	    0.109667	    0.082849	    0.192516	    0.000666	    0.024190	    0.024856	   -0.027411	   -0.005603	   -0.033014	   -0.240954	   -0.080386	   -0.321340	   -0.091585	   -0.066701	   -0.158287	   -0.192488	   -0.130352	   -0.322840	   -0.180312	   -0.061139	   -0.241451	    0.010528	    0.013351	    0.023879	    0.026163	    0.084536	    0.110699	    0.086716	    0.073280	    0.159996	   -0.071023	   -0.005486	   -0.076509	    0.081605	    0.143041	    0.224647	    0.156779	    0.161507	    0.318286	   -0.021653	    0.075575	    0.053922	   -0.052225	   -0.017530	   -0.069755	    0.081230	    0.042474	    0.123704
     6.525	0	0	    0	    0.031685	    0.057884	    0.089569	   -0.096278	    0.029657	   -0.066621	   -0.050716	    0.015705	   -0.035011	   -0.075378	   -0.008432	   -0.083810	   -0.189170	   -0.083354	   -0.272525	   -0.095072	    0.008813	   -0.086259	    0.108876	    0.081396	    0.190272	   -0.002958	    0.025068	    0.022110	   -0.034596	   -0.004935	   -0.039531	   -0.237208	   -0.090812	   -0.328020	   -0.087316	   -0.063142	   -0.150458	   -0.196208	   -0.153522	   -0.349730	   -0.180871	   -0.071193	   -0.252063	    0.006082	    0.011368	    0.017450	    0.000173	    0.082955	    0.083128	    0.075289	    0.076485	    0.151774	   -0.080690	   -0.004083	   -0.084772	    0.070806	    0.146377	    0.217183	    0.142869	    0.160556	    0.303425	   -0.027716	    0.079853	    0.052137	   -0.059737	   -0.019260	   -0.078997	    0.060564	    0.037551	    0.098115
     6.600	0	0	    0	    0.040143	    0.059351	    0.099494	   -0.094807	    0.031310	   -0.063497	   -0.064752	    0.025799	   -0.038953	   -0.080395	    0.003190	   -0.077205	   -0.202855	   -0.072592	   -0.275447	   -0.119471	    0.013747	   -0.105724	    0.117648	    0.089433	    0.207080	   -0.021047	    0.016492	   -0.004555	   -0.031366	   -0.007973	   -0.039340	   -0.251027	   -0.094993	   -0.346020	   -0.109156	   -0.055278	   -0.164434	   -0.198179	   -0.139633	   -0.337811	   -0.192077	   -0.066396	   -0.258473	    0.011541	    0.008366	    0.019907	    0.009659	    0.064416	    0.074074	    0.071457	    0.055919	    0.127377	   -0.074161	   -0.008572	   -0.082732	    0.094752	    0.155626	    0.250378	    0.175534	    0.175628	    0.351162	   -0.018183	    0.075753	    0.057570	   -0.049271	   -0.022604	   -0.071876	    0.064941	    0.025402	    0.090342
     6.675	0	0	    0	    0.049076	    0.073037	    0.122113	   -0.095204	    0.034316	   -0.060889	   -0.072622	    0.030972	   -0.041650	   -0.099554	    0.007162	   -0.092392	   -0.239830	   -0.091695	   -0.331524	   -0.139886	   -0.005575	   -0.145461	    0.123931	    0.096531	    0.220462	   -0.010667	    0.016078	    0.005411	   -0.027420	   -0.004829	   -0.032249	   -0.255911	   -0.103704	   -0.359615	   -0.102831	   -0.059382	   -0.162212	   -0.216992	   -0.156236	   -0.373228	   -0.202943	   -0.080023	   -0.282966	    0.013950	    0.015564	    0.029514	    0.012134	    0.071214	    0.083349	    0.083817	    0.062495	    0.146312	   -0.069054	   -0.001263	   -0.070317	    0.100753	    0.170570	    0.271323	    0.181839	    0.196849	    0.378688	   -0.011459	    0.087252	    0.075793	   -0.045400	   -0.017354	   -0.062754	    0.072132	    0.030549	    0.102680
     6.750	0	0	    0	    0.044687	    0.077090	    0.121777	   -0.091231	    0.032749	   -0.058482	   -0.049725	    0.025092	   -0.024633	   -0.091847	    0.003934	   -0.087913	   -0.233256	   -0.112499	   -0.345755	   -0.107791	   -0.015452	   -0.123243	    0.111640	    0.101621	    0.213262	   -0.005214	    0.021795	    0.016581	   -0.028880	   -0.002249	   -0.031129	   -0.230678	   -0.105221	   -0.335899	   -0.059811	   -0.063760	   -0.123571	   -0.211463	   -0.165806	   -0.377269	   -0.188896	   -0.086060	   -0.274956	    0.015846	    0.016037	    0.031884	    0.017034	    0.077184	    0.094218	    0.085341	    0.071495	    0.156836	   -0.069766	    0.001736	   -0.068030	    0.071178	    0.166713	    0.237890	    0.137780	    0.189274	    0.327055	   -0.015011	    0.089765	    0.074754	   -0.048753	   -0.014660	   -0.063414	    0.072692	    0.038567	    0.111259
     6.825	0	0	    0	    0.021400	    0.057970	    0.079370	   -0.093053	    0.028257	   -0.064796	   -0.045525	    0.008074	   -0.037451	   -0.039301	   -0.000538	   -0.039839	   -0.156742	   -0.089606	   -0.246348	   -0.072682	    0.009922	   -0.062760	    0.097009	    0.079788	    0.176797	   -0.006771	    0.025981	    0.019210	   -0.028882	   -0.007409	   -0.036291	   -0.182431	   -0.054732	   -0.237163	   -0.053012	   -0.049041	   -0.102054	   -0.139885	   -0.146026	   -0.285911	   -0.151104	   -0.052129	   -0.203233	    0.006570	    0.013370	    0.019940	    0.015608	    0.085820	    0.101427	    0.078710	    0.066490	    0.145200	   -0.062298	   -0.001357	   -0.063654	    0.060043	    0.114913	    0.174956	    0.111133	    0.114830	    0.225964	   -0.024316	    0.077232	    0.052916	   -0.049982	   -0.018305	   -0.068286	    0.073465	    0.040404	    0.113869
     6.900	0	0	    0	    0.035910	    0.043597	    0.079507	   -0.094026	    0.033995	   -0.060031	   -0.049376	    0.017449	   -0.031927	   -0.037386	    0.010393	   -0.026993	   -0.167703	   -0.046670	   -0.214373	   -0.095002	    0.017561	   -0.077442	    0.117026	    0.080103	    0.197129	   -0.003861	    0.023001	    0.019141	   -0.032065	   -0.007624	   -0.039689	   -0.256298	   -0.065553	   -0.321851	   -0.095467	   -0.064231	   -0.159699	   -0.164016	   -0.087717	   -0.251733	   -0.186491	   -0.045559	   -0.232050	    0.015899	    0.006764	    0.022663	    0.025849	    0.084523	    0.110372	    0.089290	    0.063223	    0.152513	   -0.062945	   -0.008604	   -0.071549	    0.097780	    0.142634	    0.240414	    0.176200	    0.152502	    0.328702	   -0.014856	    0.071907	    0.057051	   -0.044472	   -0.020400	   -0.064872	    0.086870	    0.040040	    0.126910
     6.975	0	0	    0	    0.045136	    0.071186	    0.116322	   -0.098184	    0.038488	   -0.059696	   -0.057031	    0.024388	   -0.032643	   -0.083559	    0.007502	   -0.076058	   -0.217392	   -0.072821	   -0.290213	   -0.111100	    0.005077	   -0.106023	    0.119857	    0.094939	    0.214796	    0.008372	    0.028157	    0.036529	   -0.031034	   -0.006129	   -0.037163	   -0.251143	   -0.099031	   -0.350174	   -0.071326	   -0.076979	   -0.148304	   -0.205243	   -0.143126	   -0.348369	   -0.195163	   -0.070731	   -0.265894	    0.013863	    0.015144	    0.029007	    0.030104	    0.087803	    0.117908	    0.096954	    0.078030	    0.174983	   -0.072238	    0.001707	   -0.070532	    0.084616	    0.169702	    0.254318	    0.157263	    0.191424	    0.348687	   -0.014352	    0.089206	    0.074854	   -0.047981	   -0.013741	   -0.061722	    0.089661	    0.044829	    0.134490
     7.050	0	0	    0	    0.026434	    0.075067	    0.101501	   -0.100048	    0.035424	   -0.064623	   -0.050135	    0.022324	   -0.027811	   -0.047892	   -0.001311	   -0.049203	   -0.169729	   -0.091431	   -0.261160	   -0.072626	    0.007056	   -0.065570	    0.099144	    0.087741	    0.186886	    0.008803	    0.032960	    0.041764	   -0.038426	   -0.009567	   -0.047993	   -0.166032	   -0.083323	   -0.249355	   -0.038143	   -0.052344	   -0.090487	   -0.158926	   -0.151820	   -0.310746	   -0.154397	   -0.065607	   -0.220005	    0.008841	    0.012583	    0.021424	    0.035147	    0.093639	    0.128785	    0.095707	    0.077670	    0.173377	   -0.074336	   -0.003492	   -0.077827	    0.027607	    0.134365	    0.161971	    0.064038	    0.134349	    0.198387	   -0.030085	    0.086912	    0.056827	   -0.055680	   -0.019506	   -0.075186	    0.096471	    0.051389	    0.147860
     7.125	0	0	    0	    0.006731	    0.048738	    0.055469	   -0.109366	    0.021249	   -0.088117	   -0.064645	   -0.004647	   -0.069292	   -0.013167	    0.003619	   -0.009547	   -0.103271	   -0.043945	   -0.147216	   -0.057935	    0.021953	   -0.035983	    0.084513	    0.072632	    0.157146	    0.007543	    0.035612	    0.043154	   -0.037385	   -0.003084	   -0.040469	   -0.119213	   -0.002609	   -0.121822	   -0.036114	   -0.021418	   -0.057532	   -0.085156	   -0.081291	   -0.166447	   -0.106762	   -0.014840	   -0.121603	    0.004628	    0.019086	    0.023714	    0.038093	    0.101495	    0.139588	    0.093549	    0.077666	    0.171214	   -0.058375	   -0.011856	   -0.070231	    0.001399	    0.062338	    0.063737	    0.032884	    0.044809	    0.077693	   -0.051947	    0.054537	    0.002591	   -0.043202	   -0.020199	   -0.063401	    0.098983	    0.055648	    0.154631
     7.200	0	0	    0	    0.006066	    0.033121	    0.039186	   -0.106951	    0.021574	   -0.085377	   -0.046082	   -0.005543	   -0.051625	   -0.014948	    0.006402	   -0.008546	   -0.112636	   -0.010716	   -0.123352	   -0.073405	    0.026910	   -0.046496	    0.107255	    0.065055	    0.172310	    0.016312	    0.031590	    0.047903	   -0.049997	   -0.015328	   -0.065325	   -0.228488	   -0.011824	   -0.240312	   -0.073056	   -0.037216	   -0.110273	   -0.118067	   -0.041776	   -0.159843	   -0.177563	    0.000986	   -0.176576	    0.007381	    0.010665	    0.018045	    0.056945	    0.110622	    0.167567	    0.109238	    0.064410	    0.173648	   -0.050766	    0.001016	   -0.049750	    0.068478	    0.095788	    0.164266	    0.138141	    0.092801	    0.230942	   -0.031267	    0.036043	    0.004776	   -0.049525	   -0.015157	   -0.064682	    0.109110	    0.069822	    0.178931
     7.275	0	0	    0	    0.020954	    0.053281	    0.074236	   -0.107263	    0.036966	   -0.070297	   -0.046987	    0.015395	   -0.031592	   -0.052695	    0.006388	   -0.046308	   -0.156749	   -0.036970	   -0.193719	   -0.083916	    0.025498	   -0.058418	    0.114635	    0.093667	    0.208302	    0.026032	    0.046643	    0.072675	   -0.053778	   -0.019219	   -0.072997	   -0.248680	   -0.081867	   -0.330546	   -0.059287	   -0.065344	   -0.124631	   -0.184644	   -0.108545	   -0.293189	   -0.196758	   -0.055648	   -0.252406	    0.012145	    0.019515	    0.031660	    0.065927	    0.110238	    0.176165	    0.115880	    0.094505	    0.210385	   -0.066271	    0.008832	   -0.057439	    0.057121	    0.148755	    0.205876	    0.120669	    0.166666	    0.287335	   -0.029496	    0.076470	    0.046973	   -0.060092	   -0.011969	   -0.072062	    0.124282	    0.078411	    0.202693
     7.350	0	0	    0	    0.010210	    0.062803	    0.073013	   -0.116351	    0.033032	   -0.083319	   -0.065552	    0.017383	   -0.048170	   -0.030257	   -0.009575	   -0.039833	   -0.123692	   -0.051000	   -0.174692	   -0.054918	    0.021727	   -0.033190	    0.097636	    0.093916	    0.191552	    0.024045	    0.057401	    0.081447	   -0.029424	   -0.010870	   -0.040293	   -0.097497	   -0.068187	   -0.165684	   -0.009340	   -0.034356	   -0.043696	   -0.125882	   -0.135549	   -0.261431	   -0.142286	   -0.062429	   -0.204715	    0.016929	    0.020803	    0.037732	    0.053896	    0.118592	    0.172488	    0.111877	    0.108012	    0.219889	   -0.067073	    0.002902	   -0.064171	   -0.030946	    0.102792	    0.071846	   -0.037899	    0.092769	    0.054870	   -0.041153	    0.083005	    0.041852	   -0.059598	   -0.026923	   -0.086522	    0.112659	    0.085970	    0.198629
     7.425	0	0	    0	   -0.015928	    0.032867	    0.016939	   -0.111951	    0.011680	   -0.100271	   -0.069747	   -0.017464	   -0.087211	   -0.014150	   -0.010007	   -0.024157	   -0.050459	   -0.000232	   -0.050691	   -0.038342	    0.031424	   -0.006918	    0.083053	    0.072036	    0.155089	    0.015498	    0.060962	    0.076460	   -0.009699	    0.017721	    0.008021	   -0.000783	    0.085413	    0.084630	    0.013301	    0.021931	    0.035232	   -0.028358	   -0.037895	   -0.066253	   -0.033043	    0.046204	    0.013161	    0.024234	    0.043501	    0.067735	    0.043865	    0.118327	    0.162192	    0.103856	    0.080054	    0.183910	   -0.057443	    0.004338	   -0.053105	   -0.070331	   -0.014435	   -0.084765	   -0.063919	   -0.044752	   -0.108671	   -0.084459	    0.022429	   -0.062030	   -0.028020	   -0.004761	   -0.032780	    0.112052	    0.071392	    0.183444
     7.500	0	0	    0	   -0.023655	    0.014588	   -0.009067	   -0.110205	    0.011651	   -0.098554	   -0.043154	   -0.009110	   -0.052264	   -0.013115	   -0.005501	   -0.018616	   -0.055077	    0.023390	   -0.031688	   -0.052576	    0.037103	   -0.015473	    0.096153	    0.072358	    0.168511	    0.007499	    0.053501	    0.061000	   -0.046924	    0.027775	   -0.019149	   -0.127704	    0.073389	   -0.054314	   -0.020045	    0.002227	   -0.017818	   -0.066762	    0.023623	   -0.043139	   -0.145165	    0.070992	   -0.074172	    0.011094	    0.035520	    0.046614	    0.046799	    0.118594	    0.165394	    0.097073	    0.071676	    0.168750	   -0.033106	    0.009108	   -0.023998	    0.030260	    0.024619	    0.054879	    0.060492	    0.004064	    0.064556	   -0.040327	    0.003406	   -0.036921	   -0.039459	    0.009098	   -0.030362	    0.115794	    0.068355	    0.184149
     7.575	0	0	    0	   -0.009617	    0.023007	    0.013390	   -0.106791	    0.024360	   -0.082431	   -0.040754	    0.010681	   -0.030073	   -0.019150	   -0.010036	   -0.029186	   -0.076646	    0.001608	   -0.075037	   -0.050189	    0.031998	   -0.018191	    0.095420	    0.086691	    0.182111	    0.004343	    0.045935	    0.050278	   -0.040724	   -0.003057	   -0.043781	   -0.105341	    0.008756	   -0.096585	   -0.003470	   -0.010713	   -0.014183	   -0.118176	   -0.065145	   -0.183322	   -0.138288	   -0.018441	   -0.156729	    0.014424	    0.027035	    0.041460	    0.033572	    0.118663	    0.152235	    0.089389	    0.070263	    0.159652	   -0.039270	    0.001797	   -0.037473	    0.011548	    0.072639	    0.084187	    0.032611	    0.061329	    0.093940	   -0.037313	    0.048721	    0.011409	   -0.041151	   -0.007113	   -0.048264	    0.100733	    0.063895	    0.164628
     7.650	0	0	    0	   -0.023537	    0.017797	   -0.005740	   -0.099378	    0.023463	   -0.075916	   -0.046173	    0.005725	   -0.040448	   -0.009195	   -0.011434	   -0.020629	   -0.062269	    0.003667	   -0.058602	   -0.044495	    0.031588	   -0.012907	    0.075692	    0.071145	    0.146837	   -0.003309	    0.043360	    0.040051	   -0.027041	   -0.001655	   -0.028695	   -0.013593	    0.049675	    0.036081	    0.011392	    0.006355	    0.017747	   -0.072015	   -0.068379	   -0.140393	   -0.088291	   -0.009596	   -0.097888	    0.015391	    0.027694	    0.043085	    0.027299	    0.103645	    0.130944	    0.068695	    0.055695	    0.124390	   -0.023547	    0.013765	   -0.009782	   -0.040467	    0.030930	   -0.009537	   -0.034183	    0.023360	   -0.010823	   -0.029980	    0.048687	    0.018707	   -0.028049	   -0.007075	   -0.035124	    0.082140	    0.050123	    0.132264
     7.725	0	0	    0	   -0.037729	   -0.001057	   -0.038787	   -0.086712	    0.020631	   -0.066081	   -0.040429	    0.007756	   -0.032673	   -0.008097	   -0.007848	   -0.015944	   -0.050111	    0.013904	   -0.036207	   -0.039333	    0.026589	   -0.012744	    0.061514	    0.051651	    0.113165	   -0.001501	    0.038197	    0.036696	   -0.018695	    0.018293	   -0.000401	   -0.000245	    0.099538	    0.099293	    0.010630	    0.017908	    0.028538	   -0.023174	   -0.004947	   -0.028121	   -0.033338	    0.063628	    0.030289	    0.018882	    0.037229	    0.056111	    0.026556	    0.093314	    0.119869	    0.062489	    0.044497	    0.106986	   -0.039612	    0.004619	   -0.034994	   -0.047164	   -0.017040	   -0.064204	   -0.046485	   -0.026794	   -0.073280	   -0.036172	    0.024946	   -0.011226	   -0.015699	    0.010450	   -0.005249	    0.073490	    0.042927	    0.116417
     7.800	0	0	    0	   -0.036569	   -0.005009	   -0.041578	   -0.088491	    0.024247	   -0.064245	   -0.040330	    0.006771	   -0.033559	   -0.007541	   -0.007687	   -0.015228	   -0.047365	    0.020390	   -0.026975	   -0.037393	    0.026808	   -0.010585	    0.070613	    0.041637	    0.112250	    0.011605	    0.040624	    0.052229	   -0.020045	    0.020111	    0.000066	   -0.020875	    0.096354	    0.075480	    0.001722	    0.017238	    0.018961	   -0.017607	    0.010394	   -0.007212	   -0.045645	    0.083023	    0.037379	    0.029294	    0.038004	    0.067298	    0.047489	    0.109245	    0.156734	    0.087497	    0.041638	    0.129136	   -0.050768	   -0.008976	   -0.059744	   -0.030382	   -0.019702	   -0.050083	   -0.033147	   -0.034121	   -0.067268	   -0.032989	    0.015094	   -0.017895	   -0.017328	    0.012995	   -0.004334	    0.100549	    0.055674	    0.156223
     7.875	0	0	    0	   -0.035154	    0.000502	   -0.034651	   -0.089907	    0.026465	   -0.063442	   -0.042946	    0.011618	   -0.031328	   -0.007852	   -0.005990	   -0.013842	   -0.047680	    0.019356	   -0.028323	   -0.033598	    0.027983	   -0.005616	    0.064233	    0.050945	    0.115178	    0.027529	    0.064787	    0.092316	   -0.023034	    0.022076	   -0.000958	    0.015077	    0.061280	    0.076356	    0.007931	    0.014061	    0.021992	   -0.023055	    0.003159	   -0.019895	   -0.040914	    0.063011	    0.022098	    0.027404	    0.046061	    0.073465	    0.025807	    0.120089	    0.145897	    0.086048	    0.073341	    0.159389	   -0.053626	   -0.018977	   -0.072603	   -0.100732	    0.003399	   -0.097333	   -0.090771	   -0.019044	   -0.109815	   -0.037972	    0.028661	   -0.009311	   -0.026507	    0.006947	   -0.019561	    0.096070	    0.052073	    0.148143
     7.950	0	0	    0	   -0.042205	    0.001983	   -0.040222	   -0.071912	    0.018822	   -0.053090	   -0.030218	   -0.000611	   -0.030828	   -0.011568	   -0.001933	   -0.013501	   -0.017559	    0.020977	    0.003418	   -0.031739	    0.031917	    0.000178	    0.042502	    0.043421	    0.085923	    0.010649	    0.064126	    0.074775	    0.029299	    0.037045	    0.066344	    0.001574	    0.105989	    0.107563	    0.047614	    0.050479	    0.098093	    0.016330	    0.024475	    0.040805	    0.076173	    0.153974	    0.230147	    0.060926	    0.069604	    0.130530	    0.025199	    0.093701	    0.118900	    0.094868	    0.052938	    0.147806	   -0.108863	   -0.029271	   -0.138134	   -0.122197	   -0.081278	   -0.203476	   -0.128698	   -0.082878	   -0.211577	   -0.123227	   -0.022554	   -0.145781	   -0.031808	    0.017100	   -0.014708	    0.109706	    0.060643	    0.170349
     8.025	0	0	    0	   -0.039174	   -0.000485	   -0.039658	   -0.058647	    0.035346	   -0.023301	   -0.020842	    0.020090	   -0.000752	   -0.022413	   -0.007553	   -0.029966	    0.017866	    0.058049	    0.075915	   -0.011157	    0.040870	    0.029712	    0.044005	    0.031048	    0.075053	    0.011756	    0.057392	    0.069147	    0.012505	    0.064925	    0.077430	   -0.010382	    0.106391	    0.096009	    0.044740	    0.063316	    0.108056	   -0.056480	    0.017081	   -0.039400	    0.006288	    0.219844	    0.226132	    0.047544	    0.080293	    0.127837	    0.031183	    0.091754	    0.122937	    0.078809	    0.045732	    0.124541	   -0.061528	   -0.047668	   -0.109195	   -0.115247	   -0.089682	   -0.204929	   -0.117235	   -0.102993	   -0.220228	   -0.116081	   -0.080418	   -0.196499	   -0.109961	    0.021172	   -0.088789	    0.115608	    0.062416	    0.178024
     8.100	0	0	    0	   -0.039441	   -0.000193	   -0.039634	   -0.073045	    0.043035	   -0.030010	   -0.010789	    0.028585	    0.017796	   -0.016497	   -0.002461	   -0.018958	    0.006913	    0.065200	    0.072113	   -0.018447	    0.049617	    0.031170	    0.069128	    0.029281	    0.098409	    0.014508	    0.061170	    0.075678	   -0.050606	    0.067050	    0.016444	   -0.156002	    0.102764	   -0.053238	   -0.005065	    0.040558	    0.035493	   -0.084778	    0.009310	   -0.075468	   -0.066038	    0.163511	    0.097474	    0.006470	    0.051212	    0.057682	    0.035218	    0.099873	    0.135092	    0.051710	    0.045671	    0.097381	   -0.017825	   -0.014140	   -0.031965	    0.029082	   -0.048984	   -0.019902	    0.042251	   -0.079799	   -0.037548	   -0.054044	   -0.065359	   -0.119403	   -0.072541	   -0.035704	   -0.108246	    0.097365	    0.055663	    0.153028
     8.175	0	0	    0	    0.015262	    0.008673	    0.023935	   -0.102034	    0.035376	   -0.066658	   -0.055569	    0.031629	   -0.023940	   -0.049348	   -0.002442	   -0.051789	   -0.124402	    0.040535	   -0.083867	   -0.064264	    0.057981	   -0.006283	    0.110900	    0.066319	    0.177219	    0.010388	    0.049479	    0.059868	   -0.029282	    0.017578	   -0.011704	   -0.216686	   -0.064920	   -0.281606	   -0.032448	   -0.024415	   -0.056862	   -0.182609	   -0.098291	   -0.280900	   -0.186157	   -0.004870	   -0.191027	    0.004870	    0.020880	    0.025750	    0.034159	    0.106403	    0.140561	    0.057087	    0.036132	    0.093219	   -0.048289	    0.001470	   -0.046819	    0.039374	    0.068324	    0.107699	    0.144495	    0.091128	    0.235623	   -0.010746	    0.054368	    0.043622	   -0.075721	   -0.046765	   -0.122486	    0.095281	    0.052267	    0.147549
     8.250	0	0	    0	    0.023296	    0.057462	    0.080758	   -0.105434	    0.039209	   -0.066225	   -0.053657	    0.034142	   -0.019515	   -0.056012	    0.007113	   -0.048900	   -0.172975	   -0.037964	   -0.210939	   -0.089401	    0.054110	   -0.035292	    0.113427	    0.093714	    0.207141	    0.004480	    0.048763	    0.053242	   -0.036033	    0.022750	   -0.013283	   -0.219472	   -0.060804	   -0.280275	   -0.022776	   -0.026509	   -0.049284	   -0.191808	   -0.134631	   -0.326439	   -0.192817	   -0.050218	   -0.243035	   -0.000976	    0.020476	    0.019500	    0.028303	    0.096227	    0.124530	    0.052118	    0.043112	    0.095230	   -0.042626	    0.010638	   -0.031988	    0.073658	    0.103106	    0.176764	    0.163462	    0.144578	    0.308040	   -0.019645	    0.065180	    0.045534	   -0.054354	   -0.031134	   -0.085488	    0.084662	    0.043896	    0.128558
     8.325	0	0	    0	    0.029534	    0.069763	    0.099296	   -0.097979	    0.041529	   -0.056451	   -0.040697	    0.034012	   -0.006685	   -0.059897	    0.020369	   -0.039528	   -0.207694	   -0.065473	   -0.273167	   -0.076002	    0.020204	   -0.055798	    0.109586	    0.099413	    0.208998	   -0.004898	    0.039355	    0.034457	   -0.038201	    0.022576	   -0.015625	   -0.174482	   -0.075547	   -0.250029	    0.033480	   -0.028216	    0.005264	   -0.204211	   -0.147817	   -0.352028	   -0.202005	   -0.066724	   -0.268729	   -0.001596	    0.009525	    0.007929	    0.017320	    0.081060	    0.098380	    0.033995	    0.042280	    0.076275	   -0.033054	    0.017886	   -0.015167	    0.028803	    0.128381	    0.157184	    0.076226	    0.170410	    0.246636	   -0.020236	    0.080233	    0.059996	   -0.060433	   -0.021641	   -0.082075	    0.074615	    0.029425	    0.104040
     8.400	0	0	    0	   -0.004859	    0.045892	    0.041032	   -0.079215	    0.043640	   -0.035575	   -0.030139	    0.029164	   -0.000975	   -0.006125	    0.016709	    0.010584	   -0.101304	   -0.035720	   -0.137024	   -0.044723	    0.044373	   -0.000350	    0.087625	    0.065466	    0.153091	   -0.018779	    0.024225	    0.005446	   -0.039654	    0.016794	   -0.022861	   -0.111320	    0.028222	   -0.083099	   -0.000594	    0.023309	    0.022715	   -0.103053	   -0.106947	   -0.210000	   -0.143536	   -0.010698	   -0.154234	   -0.010463	    0.001302	   -0.009162	    0.011554	    0.056876	    0.068430	    0.016079	    0.025750	    0.041828	   -0.002434	    0.031357	    0.028923	    0.070895	    0.041968	    0.112863	    0.121296	    0.042553	    0.163849	   -0.030504	    0.063654	    0.033151	   -0.045163	   -0.012818	   -0.057981	    0.050455	    0.020885	    0.071340
     8.475	0	0	    0	    0.029664	    0.039056	    0.068720	   -0.097766	    0.051053	   -0.046713	   -0.065886	    0.049553	   -0.016333	   -0.037615	    0.031182	   -0.006433	   -0.182377	   -0.003183	   -0.185560	   -0.120376	    0.065955	   -0.054421	    0.118960	    0.084091	    0.203051	   -0.020072	    0.005703	   -0.014369	   -0.048847	    0.010837	   -0.038010	   -0.226428	   -0.043118	   -0.269546	   -0.045019	   -0.022807	   -0.067826	   -0.192742	   -0.100779	   -0.293521	   -0.211747	   -0.022957	   -0.234704	   -0.012776	    0.000969	   -0.011807	    0.011022	    0.047885	    0.058907	    0.010549	    0.011433	    0.021982	   -0.032044	    0.028066	   -0.003978	    0.108413	    0.125213	    0.233625	    0.204257	    0.149586	    0.353843	   -0.016089	    0.072688	    0.056599	   -0.052304	   -0.009391	   -0.061695	    0.040899	    0.017668	    0.058567
     8.550	0	0	    0	    0.048250	    0.079416	    0.127667	   -0.113357	    0.056920	   -0.056437	   -0.100212	    0.067478	   -0.032734	   -0.077794	    0.051019	   -0.026774	   -0.225816	   -0.139598	   -0.365414	   -0.205932	    0.007609	   -0.198323	    0.117382	    0.113764	    0.231147	   -0.015600	   -0.007314	   -0.022914	   -0.055645	    0.013727	   -0.041917	   -0.241657	   -0.077336	   -0.318993	   -0.055817	   -0.026853	   -0.082670	   -0.207541	   -0.143528	   -0.351069	   -0.212538	   -0.114535	   -0.327074	   -0.022114	    0.003031	   -0.019082	    0.002686	    0.046436	    0.049122	    0.002245	    0.008334	    0.010579	   -0.032381	    0.031550	   -0.000831	    0.114062	    0.168182	    0.282244	    0.201953	    0.208635	    0.410588	   -0.009370	    0.096630	    0.087259	   -0.058132	   -0.010983	   -0.069115	    0.038315	    0.000190	    0.038505
     8.625	0	0	    0	    0.045711	    0.088673	    0.134384	   -0.108190	    0.050037	   -0.058153	   -0.057537	    0.047462	   -0.010075	   -0.092962	    0.051735	   -0.041227	   -0.173003	   -0.233360	   -0.406363	   -0.131700	   -0.047726	   -0.179425	    0.094753	    0.123303	    0.218056	   -0.018879	   -0.013569	   -0.032448	   -0.052702	    0.012016	   -0.040686	   -0.211714	   -0.094540	   -0.306254	    0.008371	   -0.036982	   -0.028611	   -0.212657	   -0.142775	   -0.355431	   -0.143804	   -0.215162	   -0.358966	   -0.026455	    0.000649	   -0.025806	    0.002351	    0.042172	    0.044523	   -0.002095	    0.007279	    0.005185	   -0.035062	    0.034809	   -0.000253	    0.046368	    0.177723	    0.224091	    0.087996	    0.214994	    0.302990	   -0.025574	    0.109084	    0.083510	   -0.061955	   -0.013057	   -0.075013	    0.026877	    0.001075	    0.027951
     8.700	0	0	    0	   -0.017212	    0.056158	    0.038946	   -0.085252	    0.042374	   -0.042878	   -0.047316	    0.027466	   -0.019850	   -0.012708	    0.028057	    0.015350	   -0.095947	   -0.075289	   -0.171236	   -0.049247	    0.046773	   -0.002474	    0.057742	    0.065073	    0.122815	   -0.017730	   -0.016285	   -0.034016	   -0.042903	    0.008386	   -0.034517	   -0.021107	    0.031375	    0.010268	    0.010778	    0.018320	    0.029098	   -0.076269	   -0.129349	   -0.205617	   -0.106768	   -0.018377	   -0.125145	   -0.011032	    0.002458	   -0.008574	    0.003364	    0.037691	    0.041055	   -0.006558	   -0.003258	   -0.009817	   -0.010281	    0.045897	    0.035616	    0.000835	    0.027937	    0.028771	    0.014179	    0.029974	    0.044154	   -0.058843	    0.073249	    0.014406	   -0.036763	   -0.008007	   -0.044770	    0.028054	   -0.001003	    0.027051
     8.775	0	0	    0	   -0.013365	    0.002586	   -0.010778	   -0.094781	    0.043001	   -0.051779	   -0.029687	    0.015848	   -0.013839	   -0.005455	    0.011363	    0.005908	   -0.104812	    0.014844	   -0.089968	   -0.071069	    0.059065	   -0.012004	    0.085901	    0.054610	    0.140511	   -0.016990	   -0.013127	   -0.030117	   -0.050898	    0.013937	   -0.036961	   -0.161391	    0.059613	   -0.101778	   -0.043499	    0.010159	   -0.033340	   -0.094413	   -0.018610	   -0.113022	   -0.177271	    0.043487	   -0.133784	   -0.022665	    0.006037	   -0.016628	    0.009855	    0.029342	    0.039197	   -0.007204	   -0.011931	   -0.019134	   -0.031769	    0.039038	    0.007269	    0.089733	    0.071839	    0.161572	    0.140185	    0.068261	    0.208445	   -0.039473	    0.054757	    0.015283	   -0.058289	    0.011040	   -0.047249	    0.021407	   -0.002108	    0.019299
     8.850	0	0	    0	    0.043500	    0.033565	    0.077065	   -0.104499	    0.055747	   -0.048752	   -0.076177	    0.058844	   -0.017332	   -0.067187	    0.023064	   -0.044123	   -0.243886	   -0.005420	   -0.249307	   -0.177232	    0.050335	   -0.126897	    0.122366	    0.091672	    0.214038	   -0.017119	   -0.022908	   -0.040026	   -0.045793	   -0.000363	   -0.046156	   -0.223553	   -0.054755	   -0.278308	   -0.061256	   -0.031622	   -0.092879	   -0.208867	   -0.111864	   -0.320731	   -0.236777	   -0.026762	   -0.263539	   -0.016033	   -0.003975	   -0.020008	    0.019085	    0.023818	    0.042903	   -0.005040	   -0.012946	   -0.017986	   -0.030250	    0.017308	   -0.012942	    0.125459	    0.155250	    0.280710	    0.204146	    0.181329	    0.385474	   -0.015944	    0.082353	    0.066409	   -0.051874	   -0.007758	   -0.059632	    0.026107	   -0.006861	    0.019246
     8.925	0	0	    0	    0.050509	    0.080429	    0.130938	   -0.108650	    0.056539	   -0.052111	   -0.094520	    0.069220	   -0.025300	   -0.101385	    0.056892	   -0.044493	   -0.199115	   -0.189939	   -0.389054	   -0.206621	   -0.022449	   -0.229070	    0.125383	    0.115566	    0.240949	   -0.012758	   -0.022404	   -0.035161	   -0.041053	    0.006770	   -0.034283	   -0.226826	   -0.075382	   -0.302208	   -0.047369	   -0.037273	   -0.084642	   -0.207729	   -0.135108	   -0.342837	   -0.164653	   -0.180852	   -0.345505	   -0.015250	    0.000576	   -0.014673	    0.019693	    0.026702	    0.046396	   -0.002165	   -0.009058	   -0.011222	   -0.022075	    0.031259	    0.009184	    0.115851	    0.185905	    0.301756	    0.183188	    0.216983	    0.400170	   -0.009525	    0.109707	    0.100182	   -0.049384	   -0.003755	   -0.053139	    0.023740	   -0.005116	    0.018624
     9.000	0	0	    0	    0.027754	    0.082370	    0.110123	   -0.083696	    0.050104	   -0.033592	   -0.032736	    0.054935	    0.022199	   -0.055452	    0.040382	   -0.015071	   -0.204794	   -0.169573	   -0.374368	   -0.087934	   -0.003061	   -0.090995	    0.104417	    0.103784	    0.208200	   -0.012091	   -0.021856	   -0.033947	   -0.035091	    0.002285	   -0.032806	   -0.132485	   -0.067149	   -0.199634	    0.000139	   -0.010803	   -0.010664	   -0.196805	   -0.143392	   -0.340197	   -0.169160	   -0.102761	   -0.271921	   -0.010512	   -0.004423	   -0.014934	    0.025329	    0.023763	    0.049092	   -0.002413	   -0.011139	   -0.013552	   -0.005336	    0.035640	    0.030304	    0.062604	    0.147604	    0.210208	    0.096172	    0.162653	    0.258825	   -0.023674	    0.108654	    0.084980	   -0.049464	   -0.004376	   -0.053840	    0.029813	   -0.004210	    0.025602
     9.075	0	0	    0	   -0.000409	    0.042007	    0.041598	   -0.081184	    0.052288	   -0.028896	   -0.046281	    0.033674	   -0.012607	   -0.013318	    0.025469	    0.012152	   -0.141705	   -0.060987	   -0.202692	   -0.040902	    0.037596	   -0.003306	    0.076857	    0.081370	    0.158227	   -0.009841	   -0.020691	   -0.030532	   -0.025458	    0.008621	   -0.016837	   -0.010276	    0.008870	   -0.001405	    0.014144	    0.006705	    0.020849	   -0.119183	   -0.113599	   -0.232782	   -0.123226	   -0.032136	   -0.155363	    0.006841	   -0.010125	   -0.003285	    0.027193	    0.027605	    0.054797	   -0.002935	   -0.013342	   -0.016276	    0.005451	    0.046047	    0.051497	   -0.030952	    0.086118	    0.055166	   -0.036813	    0.088578	    0.051765	   -0.035133	    0.084985	    0.049852	   -0.040478	   -0.002809	   -0.043287	    0.043859	   -0.004098	    0.039760
     9.150	0	0	    0	   -0.042308	    0.003372	   -0.038936	   -0.056746	    0.021014	   -0.035732	   -0.042317	    0.001058	   -0.041259	   -0.015012	    0.008024	   -0.006988	   -0.037854	    0.011201	   -0.026653	   -0.034874	    0.059366	    0.024492	    0.052436	    0.049017	    0.101454	    0.002566	   -0.019082	   -0.016516	    0.000166	    0.016282	    0.016448	    0.026246	    0.123573	    0.149820	    0.051191	    0.038630	    0.089821	   -0.004230	   -0.015029	   -0.019259	    0.066945	    0.099108	    0.166053	    0.048407	    0.049161	    0.097568	    0.049113	    0.045407	    0.094520	    0.004829	   -0.021933	   -0.017105	   -0.026013	    0.004842	   -0.021171	   -0.098057	   -0.070045	   -0.168102	   -0.120348	   -0.068877	   -0.189225	   -0.121631	    0.027875	   -0.093756	   -0.027646	    0.011625	   -0.016021	    0.101360	    0.023610	    0.124970
     9.225	0	0	    0	   -0.035334	   -0.014499	   -0.049832	   -0.045698	    0.046247	    0.000550	   -0.029555	    0.018846	   -0.010709	   -0.020727	   -0.004600	   -0.025326	   -0.013846	    0.044235	    0.030389	   -0.019953	    0.057871	    0.037918	    0.054240	    0.040209	    0.094450	    0.008904	   -0.005224	    0.003681	   -0.016387	    0.053148	    0.036762	   -0.021807	    0.127564	    0.105757	    0.024873	    0.061732	    0.086605	   -0.054186	    0.005844	   -0.048342	    0.016804	    0.181491	    0.198294	    0.028375	    0.078410	    0.106784	    0.047467	    0.056679	    0.104146	    0.015921	   -0.006975	    0.008946	   -0.034611	   -0.004005	   -0.038615	   -0.057763	   -0.093323	   -0.151086	   -0.067706	   -0.116352	   -0.184057	   -0.085191	   -0.047370	   -0.132562	   -0.042264	   -0.008699	   -0.050964	    0.086533	    0.042393	    0.128926
     9.300	0	0	    0	   -0.020568	   -0.020307	   -0.040875	   -0.065229	    0.050322	   -0.014907	   -0.031480	    0.032707	    0.001227	   -0.022767	    0.002111	   -0.020656	   -0.069217	    0.058210	   -0.011007	   -0.030928	    0.061393	    0.030466	    0.085499	    0.056656	    0.142155	    0.001662	   -0.001308	    0.000354	   -0.038807	    0.009675	   -0.029132	   -0.165847	    0.017861	   -0.147985	   -0.010276	    0.018287	    0.008011	   -0.141360	   -0.015653	   -0.157013	   -0.120180	    0.070053	   -0.050127	    0.006810	    0.037616	    0.044425	    0.048407	    0.068231	    0.116638	    0.004110	   -0.007380	   -0.003270	   -0.027811	    0.024669	   -0.003142	    0.039512	    0.036624	    0.076136	    0.079747	    0.004569	    0.084316	   -0.021213	    0.009208	   -0.012005	   -0.061246	   -0.017637	   -0.078883	    0.084218	    0.041626	    0.125844
     9.375	0	0	    0	    0.002847	    0.020339	    0.023186	   -0.078542	    0.048403	   -0.030139	   -0.040185	    0.037336	   -0.002849	   -0.038744	    0.010136	   -0.028608	   -0.119961	    0.001472	   -0.118490	   -0.044347	    0.070809	    0.026462	    0.097830	    0.080211	    0.178041	    0.006292	   -0.006945	   -0.000652	   -0.026216	    0.023036	   -0.003180	   -0.183278	   -0.037150	   -0.220428	   -0.016437	   -0.008276	   -0.024712	   -0.172853	   -0.109951	   -0.282804	   -0.158343	   -0.007507	   -0.165850	    0.006008	    0.027542	    0.033550	    0.045368	    0.075593	    0.120961	    0.020210	    0.005021	    0.025231	   -0.044403	    0.020250	   -0.024153	    0.033057	    0.073639	    0.106696	    0.094522	    0.083209	    0.177732	   -0.040853	    0.072070	    0.031218	   -0.057167	   -0.018819	   -0.075986	    0.084872	    0.037826	    0.122698
     9.450	0	0	    0	    0.010012	    0.026653	    0.036666	   -0.089759	    0.052325	   -0.037434	   -0.053884	    0.041774	   -0.012110	   -0.065383	    0.015346	   -0.050037	   -0.154604	   -0.003306	   -0.157909	   -0.079750	    0.079473	   -0.000277	    0.110760	    0.087590	    0.198350	    0.005602	   -0.004978	    0.000624	   -0.025168	    0.030469	    0.005301	   -0.200994	   -0.038658	   -0.239652	   -0.034024	   -0.030781	   -0.064805	   -0.212522	   -0.121631	   -0.334154	   -0.185573	   -0.012822	   -0.198395	   -0.006419	    0.025111	    0.018692	    0.043751	    0.072305	    0.116056	    0.024058	    0.018026	    0.042084	   -0.043193	    0.024430	   -0.018763	    0.055890	    0.089067	    0.144957	    0.149150	    0.120347	    0.269498	   -0.041293	    0.060469	    0.019176	   -0.049407	   -0.007935	   -0.057342	    0.079432	    0.030967	    0.110399
     9.525	0	0	    0	    0.023872	    0.045985	    0.069857	   -0.100324	    0.052624	   -0.047700	   -0.057611	    0.059946	    0.002335	   -0.069277	    0.026229	   -0.043048	   -0.236787	   -0.056637	   -0.293424	   -0.126294	    0.051056	   -0.075238	    0.118810	    0.107031	    0.225841	    0.002182	   -0.004870	   -0.002687	   -0.035691	    0.031053	   -0.004637	   -0.225289	   -0.059614	   -0.284903	   -0.033934	   -0.032310	   -0.066244	   -0.223044	   -0.152027	   -0.375071	   -0.230387	   -0.049426	   -0.279813	   -0.008522	    0.020861	    0.012338	    0.042686	    0.071122	    0.113808	    0.025711	    0.023794	    0.049505	   -0.041072	    0.021920	   -0.019152	    0.072007	    0.132673	    0.204680	    0.149187	    0.176914	    0.326101	   -0.027082	    0.082057	    0.054974	   -0.048366	   -0.006145	   -0.054511	    0.084816	    0.027000	    0.111816
     9.600	0	0	    0	    0.013667	    0.059807	    0.073473	   -0.081724	    0.048081	   -0.033643	   -0.024344	    0.056048	    0.031704	   -0.054232	    0.029160	   -0.025072	   -0.228748	   -0.098499	   -0.327246	   -0.066103	    0.029878	   -0.036225	    0.093200	    0.108682	    0.201882	   -0.003118	   -0.001719	   -0.004837	   -0.038198	    0.028273	   -0.009925	   -0.101756	   -0.077145	   -0.178901	    0.018691	    0.008718	    0.027409	   -0.214932	   -0.160326	   -0.375258	   -0.187604	   -0.077048	   -0.264651	   -0.010983	    0.016815	    0.005832	    0.040278	    0.070547	    0.110825	    0.019226	    0.029947	    0.049174	   -0.018441	    0.030469	    0.012029	   -0.017626	    0.117648	    0.100022	   -0.001575	    0.149358	    0.147783	   -0.045530	    0.093643	    0.048113	   -0.053380	   -0.004835	   -0.058216	    0.074599	    0.029322	    0.103921
     9.675	0	0	    0	   -0.034044	    0.013647	   -0.020397	   -0.068275	    0.038958	   -0.029317	   -0.036792	    0.024444	   -0.012348	   -0.023658	    0.018595	   -0.005063	   -0.086021	   -0.018673	   -0.104694	   -0.036292	    0.055412	    0.019120	    0.075454	    0.059118	    0.134572	   -0.000898	    0.000128	   -0.000769	   -0.032744	    0.024515	   -0.008230	   -0.003881	    0.070478	    0.066597	    0.014982	    0.022608	    0.037590	   -0.067229	   -0.070660	   -0.137889	   -0.083843	    0.027795	   -0.056048	    0.003339	    0.024855	    0.028195	    0.042974	    0.058385	    0.101358	    0.009658	    0.014913	    0.024571	   -0.017482	    0.033562	    0.016080	   -0.023522	   -0.000681	   -0.024203	   -0.019358	    0.002066	   -0.017293	   -0.062547	    0.046137	   -0.016410	   -0.036976	    0.005766	   -0.031210	    0.068922	    0.019841	    0.088763
     9.750	0	0	    0	   -0.023963	   -0.005888	   -0.029850	   -0.057218	    0.041449	   -0.015770	   -0.030280	    0.025050	   -0.005230	   -0.009654	    0.006607	   -0.003047	   -0.081092	    0.016474	   -0.064618	   -0.029494	    0.060316	    0.030822	    0.071405	    0.060345	    0.131750	    0.001890	   -0.000755	    0.001136	   -0.028008	    0.030299	    0.002291	   -0.001103	    0.076064	    0.074961	    0.021576	    0.025568	    0.047144	   -0.059194	   -0.019448	   -0.078642	   -0.080815	    0.060068	   -0.020748	    0.006106	    0.026268	    0.032373	    0.047753	    0.054290	    0.102043	    0.009548	    0.004031	    0.013579	    0.006422	    0.032843	    0.039264	   -0.016003	   -0.000595	   -0.016598	   -0.016955	    0.003744	   -0.013211	   -0.038360	    0.035185	   -0.003175	   -0.020307	    0.015485	   -0.004821	    0.069819	    0.015891	    0.085709
     9.825	0	0	    0	   -0.020672	   -0.007171	   -0.027843	   -0.051452	    0.042181	   -0.009270	   -0.026522	    0.026637	    0.000115	   -0.005199	    0.007780	    0.002581	   -0.070879	    0.021566	   -0.049313	   -0.025424	    0.061396	    0.035972	    0.072069	    0.056498	    0.128568	    0.005567	   -0.000679	    0.004887	   -0.026640	    0.028490	    0.001850	   -0.005172	    0.081133	    0.075961	    0.019965	    0.029208	    0.049174	   -0.047496	   -0.011266	   -0.058762	   -0.074352	    0.062959	   -0.011393	    0.008397	    0.027539	    0.035936	    0.044040	    0.058235	    0.102275	    0.006967	    0.001295	    0.008261	    0.011861	    0.038412	    0.050273	    0.004103	   -0.001028	    0.003075	    0.003532	   -0.002092	    0.001440	   -0.031412	    0.039065	    0.007654	   -0.013962	    0.021975	    0.008013	    0.062219	    0.017330	    0.079549
     9.900	0	0	    0	   -0.013910	   -0.004359	   -0.018269	   -0.053091	    0.047588	   -0.005503	   -0.016282	    0.027862	    0.011580	   -0.004439	    0.008562	    0.004124	   -0.070648	    0.023951	   -0.046697	   -0.030135	    0.066122	    0.035987	    0.076076	    0.055816	    0.131891	    0.003056	    0.000667	    0.003723	   -0.028419	    0.029757	    0.001338	   -0.060952	    0.078866	    0.017913	    0.003320	    0.024093	    0.027413	   -0.055853	   -0.010557	   -0.066410	   -0.099597	    0.063049	   -0.036547	    0.001632	    0.024837	    0.026469	    0.031778	    0.050582	    0.082359	    0.000731	   -0.002534	   -0.001803	    0.009140	    0.045008	    0.054148	    0.055434	    0.024950	    0.080384	    0.074034	    0.018263	    0.092297	   -0.025895	    0.050392	    0.024497	   -0.016550	    0.024922	    0.008372	    0.052282	    0.012959	    0.065241
