 [File Information]      		 [Data Line]	36
Measured Date	2024/05/21 102443
ID		Version	11.0
Name	tristan_5	[HeaderType]	11.0/11.0
Comment	
[Measurement Info.]
Holder Location	       0
Block Design	Off     
Pre.Rest Time	       0
Task Time	       0
Pos.Rest Time	       0
Loop	       0
Averaging	       1
Total Points	     913
[.INF File]
Filename	Cognitive1.INF
[Condition-1]
HV Switching	OFF
 R1 ,R2 ,R3 ,R4 ,R5 ,R6 ,R7 ,R8 
 120.00, 70.00,120.00,100.00, 90.00, 70.00,120.00,120.00
 Gain(X1,X4,X16,X64)
 R1 ,R2 ,R3 ,R4 ,R5 ,R6 ,R7 ,R8 
 1,1,1,1,1,1,1,1
[Analysis Condition]
Smoothed Type	None            
Smoothed Points	       0
Smoothed Loop	       0
Baseline Method	None            
Baseline location	
[Text Info.]
Output Mode	Continious      	Task No.		Data Type	Hb      
Time Range	    0.00	   68.40	Averaing	1
(1,3)(5,3)(5,7)(2,7)(2,4)(6,4)(6,8)(1,1)(3,3)(5,5)(7,7)(2,2)(4,4)(6,6)(8,8)(3,1)(3,5)(7,5)(7,2)(4,2)(4,6)(8,6)
         	     	     	     	    ch- 1	    ch- 1	    ch- 1	    ch- 2	    ch- 2	    ch- 2	    ch- 3	    ch- 3	    ch- 3	    ch- 4	    ch- 4	    ch- 4	    ch- 5	    ch- 5	    ch- 5	    ch- 6	    ch- 6	    ch- 6	    ch- 7	    ch- 7	    ch- 7	    ch- 8	    ch- 8	    ch- 8	    ch- 9	    ch- 9	    ch- 9	    ch-10	    ch-10	    ch-10	    ch-11	    ch-11	    ch-11	    ch-12	    ch-12	    ch-12	    ch-13	    ch-13	    ch-13	    ch-14	    ch-14	    ch-14	    ch-15	    ch-15	    ch-15	    ch-16	    ch-16	    ch-16	    ch-17	    ch-17	    ch-17	    ch-18	    ch-18	    ch-18	    ch-19	    ch-19	    ch-19	    ch-20	    ch-20	    ch-20	    ch-21	    ch-21	    ch-21	    ch-22	    ch-22	    ch-22
Time(sec)	Task	Mark	Count	    oxyHb   	  deoxyHb	  totalHb	    oxyHb   	  deoxyHb	  totalHb	    oxyHb   	  deoxyHb	  totalHb	    oxyHb   	  deoxyHb	  totalHb	    oxyHb   	  deoxyHb	  totalHb	    oxyHb   	  deoxyHb	  totalHb	    oxyHb   	  deoxyHb	  totalHb	    oxyHb   	  deoxyHb	  totalHb	    oxyHb   	  deoxyHb	  totalHb	    oxyHb   	  deoxyHb	  totalHb	    oxyHb   	  deoxyHb	  totalHb	    oxyHb   	  deoxyHb	  totalHb	    oxyHb   	  deoxyHb	  totalHb	    oxyHb   	  deoxyHb	  totalHb	    oxyHb   	  deoxyHb	  totalHb	    oxyHb   	  deoxyHb	  totalHb	    oxyHb   	  deoxyHb	  totalHb	    oxyHb   	  deoxyHb	  totalHb	    oxyHb   	  deoxyHb	  totalHb	    oxyHb   	  deoxyHb	  totalHb	    oxyHb   	  deoxyHb	  totalHb	    oxyHb   	  deoxyHb	  totalHb
     0.000	0	0Z	    0	    0.000000	    0.000000	    0.000000	    0.000000	    0.000000	    0.000000	    0.000000	    0.000000	    0.000000	    0.000000	    0.000000	    0.000000	    0.000000	    0.000000	    0.000000	    0.000000	    0.000000	    0.000000	    0.000000	    0.000000	    0.000000	    0.000000	    0.000000	    0.000000	    0.000000	    0.000000	    0.000000	    0.000000	    0.000000	    0.000000	    0.000000	    0.000000	    0.000000	    0.000000	    0.000000	    0.000000	    0.000000	    0.000000	    0.000000	    0.000000	    0.000000	    0.000000	    0.000000	    0.000000	    0.000000	    0.000000	    0.000000	    0.000000	    0.000000	    0.000000	    0.000000	    0.000000	    0.000000	    0.000000	    0.000000	    0.000000	    0.000000	    0.000000	    0.000000	    0.000000	    0.000000	    0.000000	    0.000000	    0.000000	    0.000000	    0.000000
     0.075	0	0	    0	   -0.004436	    0.000992	   -0.003444	   -0.004520	   -0.000673	   -0.005193	   -0.002812	    0.000281	   -0.002531	   -0.000819	   -0.000078	   -0.000897	   -0.002048	   -0.000882	   -0.002930	   -0.002015	   -0.002149	   -0.004164	   -0.003015	    0.002481	   -0.000534	   -0.001976	   -0.000707	   -0.002683	   -0.004258	    0.000575	   -0.003684	   -0.004094	   -0.000667	   -0.004761	   -0.000376	   -0.001037	   -0.001412	   -0.002831	   -0.000328	   -0.003159	   -0.006254	    0.000451	   -0.005803	    0.004038	   -0.005811	   -0.001773	    0.001224	   -0.000775	    0.000450	   -0.001998	    0.000633	   -0.001366	   -0.003181	   -0.001683	   -0.004864	    0.000949	   -0.002616	   -0.001667	    0.000288	   -0.001700	   -0.001412	   -0.005296	   -0.000871	   -0.006167	   -0.005347	    0.000749	   -0.004597	    0.001715	   -0.001703	    0.000012
     0.150	0	0	    0	    0.001233	   -0.002512	   -0.001278	    0.015626	   -0.002511	    0.013115	    0.004535	   -0.001143	    0.003391	    0.000078	   -0.001773	   -0.001695	    0.000449	   -0.001716	   -0.001268	    0.013540	   -0.002745	    0.010795	    0.008857	   -0.000959	    0.007898	    0.001537	   -0.003263	   -0.001726	    0.004780	   -0.000875	    0.003906	    0.011569	   -0.001509	    0.010060	    0.006315	   -0.001067	    0.005248	    0.000483	   -0.002131	   -0.001648	    0.010479	   -0.002371	    0.008108	    0.015652	   -0.005031	    0.010622	    0.002134	    0.002242	    0.004376	    0.003488	   -0.001218	    0.002270	    0.007122	   -0.003541	    0.003581	    0.013258	    0.000399	    0.013657	    0.010822	   -0.000080	    0.010742	    0.008431	   -0.002747	    0.005684	    0.009797	   -0.001185	    0.008612	    0.004187	    0.000782	    0.004970
     0.225	0	0	    0	    0.006974	   -0.001640	    0.005334	    0.021258	    0.003139	    0.024396	    0.007871	    0.001584	    0.009455	    0.002774	   -0.000904	    0.001870	    0.006129	    0.000347	    0.006476	    0.017157	    0.003633	    0.020790	    0.006650	    0.005529	    0.012179	    0.005782	   -0.003589	    0.002193	    0.011557	    0.000618	    0.012174	    0.016746	    0.004601	    0.021347	    0.009163	    0.000523	    0.009686	    0.007775	   -0.000373	    0.007402	    0.017168	    0.004850	    0.022017	    0.016086	   -0.001588	    0.014498	    0.007336	   -0.001434	    0.005902	    0.006737	    0.000499	    0.007236	    0.013782	    0.001871	    0.015653	    0.017582	    0.002654	    0.020236	    0.012755	    0.002505	    0.015260	    0.015978	    0.002732	    0.018710	    0.013258	    0.006210	    0.019469	    0.005679	    0.000420	    0.006099
     0.300	0	0	    0	    0.007658	   -0.000454	    0.007205	    0.019328	    0.004596	    0.023924	    0.008637	    0.001679	    0.010315	    0.003572	   -0.000015	    0.003558	    0.007843	    0.001529	    0.009372	    0.016761	    0.005160	    0.021921	    0.005842	    0.005774	    0.011617	    0.005871	   -0.002120	    0.003751	    0.011237	    0.001941	    0.013178	    0.016227	    0.005731	    0.021958	    0.008463	    0.001395	    0.009857	    0.008656	    0.001496	    0.010152	    0.018701	    0.004644	    0.023345	    0.015482	   -0.001212	    0.014270	    0.005129	    0.000782	    0.005911	    0.007703	    0.000552	    0.008255	    0.016216	    0.001451	    0.017667	    0.016299	    0.003441	    0.019740	    0.012071	    0.002671	    0.014742	    0.017372	    0.003062	    0.020434	    0.015923	    0.004100	    0.020023	    0.006977	   -0.000614	    0.006362
     0.375	0	0	    0	    0.004854	    0.000439	    0.005293	    0.016831	    0.003159	    0.019990	    0.007858	    0.000582	    0.008440	    0.003720	    0.000729	    0.004449	    0.006623	    0.001563	    0.008186	    0.016132	    0.001866	    0.017998	    0.012195	   -0.001947	    0.010248	    0.004110	   -0.002673	    0.001437	    0.008844	    0.000941	    0.009786	    0.014014	    0.003162	    0.017176	    0.008187	    0.000395	    0.008583	    0.006633	    0.002101	    0.008734	    0.012941	    0.003307	    0.016248	    0.014024	   -0.004380	    0.009645	    0.005026	    0.001304	    0.006330	    0.006564	    0.001030	    0.007594	    0.013049	    0.000590	    0.013640	    0.014791	    0.002897	    0.017688	    0.011003	    0.002510	    0.013513	    0.015323	    0.003143	    0.018467	    0.011102	    0.002548	    0.013650	    0.005447	    0.001330	    0.006777
     0.450	0	0	    0	    0.004470	   -0.000277	    0.004193	    0.014716	    0.004227	    0.018943	    0.004213	    0.002534	    0.006746	    0.003651	    0.000945	    0.004596	    0.006817	    0.001205	    0.008021	    0.017815	    0.000992	    0.018807	    0.008088	    0.001429	    0.009517	    0.003445	   -0.001290	    0.002156	    0.008785	    0.001109	    0.009894	    0.035058	   -0.006507	    0.028551	    0.051856	   -0.021323	    0.030533	    0.008262	    0.001071	    0.009333	    0.017601	    0.000928	    0.018529	    0.013456	   -0.002551	    0.010905	    0.002389	    0.002722	    0.005111	    0.006948	    0.001083	    0.008031	    0.011636	    0.002699	    0.014335	   -0.035385	    0.016684	   -0.018701	   -0.079371	    0.029214	   -0.050157	    0.012391	    0.004384	    0.016775	    0.011405	    0.003227	    0.014631	    0.002228	    0.003042	    0.005270
     0.525	0	0	    0	    0.004065	   -0.000545	    0.003520	    0.014124	    0.004419	    0.018543	   -0.001041	    0.000007	   -0.001034	   -0.012516	   -0.006840	   -0.019355	    0.011123	   -0.000587	    0.010536	    0.010659	    0.003315	    0.013974	    0.000181	    0.001837	    0.002018	    0.003574	   -0.002596	    0.000977	    0.030352	    0.008384	    0.038737	    0.061426	    0.068651	    0.130077	    0.077053	    0.068806	    0.145859	    0.031492	    0.025097	    0.056589	    0.110012	    0.061435	    0.171447	    0.031233	    0.005677	    0.036910	    0.002366	   -0.000069	    0.002297	    0.015872	    0.001281	    0.017152	   -0.009531	    0.019030	    0.009499	   -0.067717	   -0.062890	   -0.130608	   -0.122867	   -0.087876	   -0.210744	   -0.070716	   -0.015767	   -0.086483	    0.047773	    0.019388	    0.067161	    0.013860	    0.000086	    0.013946
     0.600	0	0	    0	    0.002446	   -0.001545	    0.000901	    0.014221	    0.010331	    0.024552	    0.005165	    0.004392	    0.009557	   -0.012794	   -0.011928	   -0.024723	    0.017376	   -0.000177	    0.017198	    0.001291	    0.002706	    0.003997	    0.003733	   -0.000012	    0.003721	    0.002959	   -0.009370	   -0.006411	    0.039040	    0.025957	    0.064997	    0.058007	    0.056571	    0.114577	    0.063015	    0.097763	    0.160779	   -0.012248	    0.037484	    0.025236	    0.101318	    0.107952	    0.209270	    0.046695	    0.021228	    0.067923	    0.004075	    0.006637	    0.010713	    0.022480	    0.000694	    0.023175	   -0.023802	   -0.025826	   -0.049627	   -0.051906	   -0.058748	   -0.110654	   -0.086943	   -0.093801	   -0.180743	   -0.064119	   -0.071263	   -0.135381	    0.015816	    0.041654	    0.057470	    0.036393	    0.015316	    0.051710
     0.675	0	0	    0	    0.001507	   -0.001431	    0.000076	    0.013934	    0.013068	    0.027001	    0.012463	    0.008574	    0.021037	   -0.014555	   -0.010426	   -0.024981	    0.012422	    0.004719	    0.017141	   -0.003124	    0.001358	   -0.001767	    0.007832	    0.001099	    0.008931	    0.000500	   -0.009094	   -0.008594	    0.043163	    0.030907	    0.074070	    0.048184	    0.054361	    0.102545	    0.045109	    0.088755	    0.133864	   -0.038190	    0.015880	   -0.022310	    0.107655	    0.117766	    0.225421	    0.065220	    0.036928	    0.102148	   -0.000727	    0.020423	    0.019696	    0.023285	   -0.001333	    0.021953	   -0.042282	   -0.040598	   -0.082880	   -0.040193	   -0.049962	   -0.090155	   -0.075081	   -0.081660	   -0.156741	   -0.070759	   -0.069031	   -0.139790	    0.001489	    0.031875	    0.033365	    0.042886	    0.033215	    0.076100
     0.750	0	0	    0	    0.000370	   -0.002071	   -0.001701	    0.010509	    0.016098	    0.026606	    0.013831	    0.013135	    0.026966	   -0.015249	   -0.006524	   -0.021773	    0.007641	    0.004679	    0.012319	   -0.007900	    0.001049	   -0.006851	    0.012520	    0.008693	    0.021214	   -0.007485	   -0.009801	   -0.017286	    0.046787	    0.024385	    0.071172	    0.039887	    0.050748	    0.090634	    0.038273	    0.081654	    0.119927	   -0.050368	    0.006474	   -0.043893	    0.107005	    0.125474	    0.232480	    0.069157	    0.049973	    0.119129	   -0.011678	    0.040875	    0.029196	    0.030100	   -0.016662	    0.013438	   -0.042679	   -0.062473	   -0.105153	   -0.037258	   -0.047346	   -0.084604	   -0.071914	   -0.078207	   -0.150121	   -0.070980	   -0.069856	   -0.140837	   -0.009057	    0.023071	    0.014014	    0.046627	    0.042547	    0.089173
     0.825	0	0	    0	   -0.000960	   -0.002461	   -0.003421	    0.006672	    0.016020	    0.022692	    0.011280	    0.016283	    0.027564	   -0.015454	   -0.004521	   -0.019975	    0.006291	    0.004788	    0.011079	   -0.011215	   -0.001509	   -0.012724	    0.018695	    0.011696	    0.030391	   -0.013462	   -0.015521	   -0.028983	    0.039729	    0.021764	    0.061493	    0.028326	    0.049691	    0.078017	    0.023913	    0.085769	    0.109682	   -0.051690	    0.002944	   -0.048746	    0.096133	    0.128374	    0.224508	    0.067752	    0.048858	    0.116609	   -0.012667	    0.045596	    0.032929	    0.028813	   -0.018959	    0.009854	   -0.046713	   -0.064560	   -0.111273	   -0.027511	   -0.052406	   -0.079918	   -0.066869	   -0.080520	   -0.147389	   -0.070365	   -0.066556	   -0.136921	   -0.020545	    0.014144	   -0.006400	    0.045977	    0.047339	    0.093316
     0.900	0	0	    0	    0.002972	   -0.002450	    0.000522	    0.011168	    0.008065	    0.019233	    0.010334	    0.005494	    0.015828	   -0.000630	    0.000681	    0.000051	   -0.011204	   -0.000570	   -0.011774	    0.002185	   -0.005848	   -0.003664	    0.048324	    0.020378	    0.068702	   -0.020196	   -0.017747	   -0.037943	   -0.012166	    0.010784	   -0.001382	   -0.121462	    0.018557	   -0.102904	   -0.094709	    0.013267	   -0.081442	   -0.098093	    0.008225	   -0.089868	   -0.014155	    0.097703	    0.083549	    0.010796	    0.025415	    0.036211	   -0.014418	    0.046323	    0.031905	    0.016593	   -0.015471	    0.001122	   -0.032120	   -0.063963	   -0.096083	    0.073833	   -0.006952	    0.066881	    0.130973	   -0.034483	    0.096489	   -0.011121	   -0.056845	   -0.067966	   -0.025406	    0.000603	   -0.024802	    0.018366	    0.036117	    0.054483
     0.975	0	0	    0	    0.054486	    0.000423	    0.054908	   -0.003444	    0.002117	   -0.001327	   -0.016864	    0.023547	    0.006683	    0.013283	    0.055726	    0.069009	   -0.084978	    0.047749	   -0.037229	   -0.152305	    0.136112	   -0.016193	    0.105135	    0.045352	    0.150487	   -0.045225	   -0.025838	   -0.071063	    0.033848	   -0.056624	   -0.022777	   -0.227141	   -0.150486	   -0.377627	   -0.104784	   -0.073142	   -0.177927	   -0.206563	   -0.049433	   -0.255996	   -0.123773	    0.013124	   -0.110649	    0.014030	   -0.036932	   -0.022902	   -0.013298	    0.047745	    0.034447	    0.019678	   -0.019965	   -0.000288	   -0.054939	   -0.076792	   -0.131731	    0.118706	    0.068039	    0.186745	    0.305468	    0.160365	    0.465833	    0.060951	    0.011148	    0.072100	   -0.060399	   -0.027621	   -0.088020	    0.024398	    0.021683	    0.046081
     1.050	0	0	    0	    0.084220	    0.064443	    0.148663	   -0.016309	    0.003287	   -0.013022	   -0.063865	    0.099261	    0.035396	    0.027677	    0.194735	    0.222412	   -0.319897	   -0.046555	   -0.366453	   -0.316308	    0.003699	   -0.312609	    0.120774	    0.092523	    0.213297	   -0.045813	   -0.043847	   -0.089660	    0.054665	   -0.044919	    0.009747	   -0.210882	   -0.185554	   -0.396436	   -0.112549	   -0.045097	   -0.157646	   -0.229020	   -0.077513	   -0.306533	   -0.222376	   -0.113726	   -0.336102	    0.028076	   -0.026997	    0.001079	   -0.011201	    0.045609	    0.034408	    0.018671	   -0.016876	    0.001795	   -0.011082	   -0.078953	   -0.090035	    0.126670	    0.063901	    0.190572	    0.307044	    0.239527	    0.546571	    0.080295	    0.053388	    0.133682	   -0.053017	   -0.055778	   -0.108795	    0.019592	    0.022203	    0.041794
     1.125	0	0	    0	    0.067248	    0.081057	    0.148306	    0.001721	    0.000001	    0.001722	   -0.009032	    0.070884	    0.061852	    0.021217	    0.215710	    0.236927	   -0.278939	   -0.122681	   -0.401621	   -0.067041	   -0.073660	   -0.140702	    0.081463	    0.094456	    0.175919	   -0.054267	   -0.046469	   -0.100737	    0.041578	   -0.039440	    0.002138	   -0.085841	   -0.160764	   -0.246606	   -0.076359	   -0.039028	   -0.115387	   -0.235479	   -0.091465	   -0.326944	   -0.140169	   -0.160259	   -0.300428	    0.013349	   -0.027421	   -0.014072	   -0.011587	    0.039776	    0.028190	    0.010103	   -0.020734	   -0.010632	    0.001342	   -0.053165	   -0.051823	    0.031177	    0.048202	    0.079379	    0.059964	    0.197966	    0.257930	    0.035629	    0.065596	    0.101225	   -0.060849	   -0.052318	   -0.113168	    0.009284	    0.017667	    0.026952
     1.200	0	0	    0	    0.000390	    0.022210	    0.022600	   -0.009914	   -0.003229	   -0.013143	   -0.015975	    0.001415	   -0.014560	   -0.017768	    0.105062	    0.087294	   -0.038840	    0.006681	   -0.032159	   -0.026317	    0.002136	   -0.024181	    0.042843	    0.037889	    0.080731	   -0.042413	   -0.056080	   -0.098493	    0.020236	   -0.049464	   -0.029228	    0.054059	   -0.004910	    0.049150	   -0.018239	    0.001564	   -0.016676	   -0.073530	   -0.047605	   -0.121135	    0.039782	   -0.073686	   -0.033904	    0.047318	   -0.017502	    0.029815	   -0.002828	    0.036208	    0.033380	    0.017981	   -0.037212	   -0.019231	   -0.014565	   -0.048205	   -0.062770	   -0.043256	   -0.029146	   -0.072402	   -0.051578	   -0.023512	   -0.075091	   -0.029771	    0.005163	   -0.024608	    0.001685	   -0.043020	   -0.041334	    0.030612	    0.005484	    0.036096
     1.275	0	0	    0	   -0.003745	   -0.004813	   -0.008558	   -0.007328	    0.000899	   -0.006430	    0.001132	    0.002344	    0.003475	   -0.011764	    0.022736	    0.010972	   -0.010665	    0.004281	   -0.006384	   -0.014979	    0.002824	   -0.012154	    0.045458	    0.031462	    0.076920	   -0.028361	   -0.045109	   -0.073470	    0.041312	   -0.009970	    0.031343	    0.035810	    0.046053	    0.081863	   -0.023189	    0.047885	    0.024696	   -0.080489	    0.011384	   -0.069105	    0.073781	    0.105387	    0.179168	    0.083268	    0.039957	    0.123224	    0.009935	    0.050077	    0.060012	    0.041096	   -0.030334	    0.010762	   -0.036824	   -0.057299	   -0.094123	   -0.026327	   -0.047058	   -0.073385	   -0.046194	   -0.063422	   -0.109616	   -0.058662	   -0.040415	   -0.099078	   -0.014707	    0.019342	    0.004635	    0.077635	    0.046050	    0.123685
     1.350	0	0	    0	    0.000037	   -0.002481	   -0.002443	   -0.002037	    0.005665	    0.003627	    0.004061	    0.012921	    0.016982	   -0.010083	    0.018550	    0.008467	   -0.007302	    0.013914	    0.006611	   -0.013990	    0.005770	   -0.008220	    0.052783	    0.030407	    0.083190	   -0.027999	   -0.031977	   -0.059976	    0.043275	    0.015866	    0.059141	    0.015248	    0.042043	    0.057290	   -0.038622	    0.042911	    0.004289	   -0.097586	   -0.011222	   -0.108809	    0.086834	    0.119159	    0.205993	    0.077144	    0.062423	    0.139567	    0.013225	    0.059038	    0.072263	    0.053448	   -0.004010	    0.049438	   -0.053540	   -0.065475	   -0.119015	   -0.011479	   -0.049669	   -0.061148	   -0.034350	   -0.068356	   -0.102705	   -0.047364	   -0.054449	   -0.101814	   -0.017868	    0.012940	   -0.004928	    0.076884	    0.072817	    0.149701
     1.425	0	0	    0	    0.005657	   -0.001539	    0.004119	   -0.015089	    0.009926	   -0.005163	    0.004466	    0.011428	    0.015895	    0.003193	    0.030578	    0.033770	   -0.029735	    0.010149	   -0.019586	   -0.009478	    0.003166	   -0.006312	    0.080160	    0.043922	    0.124082	   -0.031096	   -0.027399	   -0.058495	   -0.003786	   -0.003380	   -0.007166	   -0.139682	   -0.006757	   -0.146439	   -0.115268	   -0.033223	   -0.148491	   -0.146905	   -0.013386	   -0.160291	   -0.040275	    0.083950	    0.043674	    0.024041	    0.032595	    0.056635	    0.037495	    0.094012	    0.131506	    0.072841	    0.008867	    0.081708	   -0.040317	   -0.066777	   -0.107094	    0.082468	    0.000781	    0.083249	    0.154274	    0.003375	    0.157649	    0.001938	   -0.044549	   -0.042610	   -0.044499	    0.004629	   -0.039870	    0.093024	    0.078667	    0.171691
     1.500	0	0	    0	    0.051445	    0.007838	    0.059283	   -0.016845	   -0.000438	   -0.017283	   -0.009664	    0.031456	    0.021792	    0.003980	    0.085005	    0.088986	   -0.102374	    0.037739	   -0.064635	   -0.020381	    0.055938	    0.035557	    0.093610	    0.074481	    0.168091	   -0.031108	   -0.008400	   -0.039509	    0.040925	   -0.040662	    0.000263	   -0.189964	   -0.149577	   -0.339541	   -0.107212	   -0.077747	   -0.184958	   -0.226882	   -0.075562	   -0.302444	   -0.081549	   -0.030097	   -0.111647	    0.036768	   -0.007080	    0.029688	   -0.013516	    0.125230	    0.111714	    0.074041	    0.040996	    0.115037	   -0.065019	   -0.070659	   -0.135678	    0.056449	    0.065026	    0.121474	    0.097505	    0.163522	    0.261027	    0.029782	    0.023318	    0.053100	   -0.072569	   -0.040577	   -0.113145	    0.044800	    0.094060	    0.138860
     1.575	0	0	    0	    0.011193	    0.039930	    0.051123	   -0.016274	    0.014084	   -0.002190	   -0.010394	    0.031195	    0.020801	   -0.006366	    0.116119	    0.109752	   -0.039287	    0.029087	   -0.010200	   -0.026286	    0.011405	   -0.014881	    0.052705	    0.054606	    0.107311	   -0.070700	   -0.014849	   -0.085549	    0.009141	   -0.019425	   -0.010284	   -0.037715	   -0.086310	   -0.124024	   -0.060594	   -0.010005	   -0.070599	   -0.111020	   -0.101801	   -0.212821	   -0.014372	   -0.047003	   -0.061374	    0.041310	    0.014659	    0.055970	   -0.018938	    0.045885	    0.026946	    0.012037	   -0.006091	    0.005947	   -0.035799	   -0.066326	   -0.102125	   -0.001567	    0.011877	    0.010309	   -0.040172	    0.009333	   -0.030839	   -0.021293	    0.011450	   -0.009842	   -0.024424	   -0.044198	   -0.068622	    0.035870	    0.039765	    0.075634
     1.650	0	0	    0	    0.003860	    0.006472	    0.010332	   -0.004039	    0.006598	    0.002559	    0.000555	    0.011712	    0.012267	    0.013851	    0.041575	    0.055427	   -0.010351	    0.016731	    0.006379	   -0.012092	    0.006797	   -0.005295	    0.065231	    0.035262	    0.100493	   -0.061919	   -0.056557	   -0.118476	    0.005612	   -0.015596	   -0.009984	   -0.048375	   -0.009504	   -0.057879	   -0.083561	    0.018338	   -0.065222	   -0.076679	   -0.007557	   -0.084236	    0.031261	    0.050568	    0.081829	    0.032228	    0.029240	    0.061468	   -0.014518	    0.043340	    0.028822	    0.026046	   -0.029121	   -0.003075	   -0.021077	   -0.050607	   -0.071684	    0.051756	   -0.020128	    0.031628	    0.055445	   -0.041695	    0.013750	   -0.004562	   -0.032266	   -0.036828	   -0.006341	    0.001333	   -0.005009	    0.029794	    0.035547	    0.065341
     1.725	0	0	    0	    0.030446	   -0.000403	    0.030043	   -0.010874	    0.013466	    0.002591	   -0.020198	    0.041560	    0.021362	    0.019162	    0.062737	    0.081900	   -0.052538	    0.024455	   -0.028083	   -0.018674	    0.052950	    0.034276	    0.110307	    0.053894	    0.164201	   -0.049964	   -0.061138	   -0.111102	    0.017659	   -0.043447	   -0.025789	   -0.173879	   -0.071862	   -0.245741	   -0.154282	   -0.046007	   -0.200290	   -0.182531	    0.002374	   -0.180157	   -0.036995	   -0.011367	   -0.048362	    0.032302	    0.000922	    0.033225	    0.032762	    0.060556	    0.093317	    0.062247	   -0.021538	    0.040709	   -0.020344	   -0.051950	   -0.072294	    0.124999	    0.045873	    0.170871	    0.252464	    0.097067	    0.349532	    0.046653	   -0.006410	    0.040243	   -0.042194	   -0.017821	   -0.060015	    0.098419	    0.043696	    0.142114
     1.800	0	0	    0	    0.072436	    0.046173	    0.118609	   -0.015734	    0.008501	   -0.007233	   -0.025479	    0.073923	    0.048444	    0.027267	    0.158410	    0.185677	   -0.267082	    0.044744	   -0.222339	   -0.154915	    0.015339	   -0.139576	    0.135793	    0.099376	    0.235169	   -0.012844	   -0.039547	   -0.052391	    0.060868	   -0.033400	    0.027468	   -0.189536	   -0.159751	   -0.349287	   -0.096827	   -0.065970	   -0.162796	   -0.243975	   -0.084736	   -0.328712	   -0.151686	   -0.080390	   -0.232076	    0.054809	   -0.000193	    0.054616	    0.020386	    0.127902	    0.148288	    0.092838	    0.043138	    0.135976	   -0.031335	   -0.076154	   -0.107489	    0.088150	    0.068599	    0.156749	    0.200674	    0.213560	    0.414234	    0.060340	    0.041857	    0.102197	   -0.046410	   -0.052174	   -0.098583	    0.089908	    0.109869	    0.199777
     1.875	0	0	    0	    0.021529	    0.056741	    0.078270	   -0.003045	    0.024469	    0.021423	   -0.017788	    0.048182	    0.030395	    0.026779	    0.164657	    0.191436	   -0.048264	   -0.060584	   -0.108848	   -0.029126	    0.036537	    0.007411	    0.068703	    0.072583	    0.141286	   -0.036300	    0.004803	   -0.031497	    0.038830	   -0.009514	    0.029316	   -0.016406	   -0.076314	   -0.092720	   -0.066975	   -0.019899	   -0.086875	   -0.166315	   -0.113276	   -0.279591	   -0.038462	   -0.055554	   -0.094016	    0.046833	    0.009235	    0.056068	   -0.038411	    0.070581	    0.032170	    0.043426	    0.023478	    0.066904	   -0.023646	   -0.054576	   -0.078222	    0.005761	    0.011242	    0.017003	   -0.008663	    0.046090	    0.037428	    0.000697	    0.034808	    0.035504	   -0.023060	   -0.043323	   -0.066383	    0.015322	    0.053080	    0.068402
     1.950	0	0	    0	    0.013194	    0.009244	    0.022438	    0.003428	    0.010855	    0.014283	    0.003809	    0.014548	    0.018358	    0.026555	    0.059855	    0.086410	   -0.024959	    0.019191	   -0.005768	   -0.015013	    0.018562	    0.003549	    0.074822	    0.044553	    0.119375	   -0.061336	   -0.040446	   -0.101782	    0.008539	   -0.006912	    0.001627	   -0.059606	   -0.002900	   -0.062507	   -0.105117	   -0.003707	   -0.108823	   -0.096994	   -0.009995	   -0.106990	   -0.031293	    0.014447	   -0.016846	    0.010394	    0.010486	    0.020880	   -0.017114	    0.029412	    0.012298	    0.035480	   -0.019162	    0.016318	   -0.014049	   -0.042112	   -0.056161	    0.059121	   -0.013973	    0.045148	    0.109928	   -0.009729	    0.100199	    0.006001	   -0.007961	   -0.001960	   -0.014848	   -0.003514	   -0.018362	    0.019560	    0.015278	    0.034838
     2.025	0	0	    0	    0.040894	    0.007965	    0.048859	   -0.015836	    0.021455	    0.005619	   -0.010462	    0.049514	    0.039052	    0.032839	    0.083911	    0.116749	   -0.080997	    0.029358	   -0.051639	   -0.106451	    0.090115	   -0.016335	    0.121889	    0.060396	    0.182286	   -0.051307	   -0.062979	   -0.114286	    0.026270	   -0.041168	   -0.014898	   -0.175333	   -0.072333	   -0.247666	   -0.143022	   -0.048023	   -0.191045	   -0.218174	   -0.022102	   -0.240276	   -0.081899	   -0.025521	   -0.107421	    0.023494	   -0.016236	    0.007258	    0.018215	    0.037179	    0.055394	    0.044442	   -0.033300	    0.011142	   -0.026376	   -0.043577	   -0.069953	    0.106206	    0.045620	    0.151826	    0.236645	    0.135590	    0.372235	    0.042015	    0.006156	    0.048172	   -0.043165	   -0.020581	   -0.063747	    0.071427	    0.019788	    0.091215
     2.100	0	0	    0	    0.065729	    0.045032	    0.110761	   -0.019165	    0.015178	   -0.003987	   -0.019756	    0.074715	    0.054959	    0.013467	    0.161637	    0.175104	   -0.259550	    0.030354	   -0.229196	   -0.228723	    0.019559	   -0.209165	    0.150067	    0.087370	    0.237436	   -0.020740	   -0.045408	   -0.066147	    0.056238	   -0.035166	    0.021073	   -0.199841	   -0.139020	   -0.338861	   -0.117775	   -0.070996	   -0.188771	   -0.282346	   -0.085075	   -0.367421	   -0.199597	   -0.066139	   -0.265736	    0.055657	   -0.015770	    0.039887	    0.053474	    0.105027	    0.158501	    0.090560	    0.012510	    0.103070	   -0.037100	   -0.066353	   -0.103453	    0.084154	    0.065770	    0.149924	    0.220877	    0.215104	    0.435981	    0.045025	    0.036846	    0.081871	   -0.052853	   -0.050525	   -0.103378	    0.106697	    0.084108	    0.190805
     2.175	0	0	    0	    0.040684	    0.057882	    0.098566	   -0.011726	    0.021869	    0.010143	   -0.017967	    0.065517	    0.047550	    0.024635	    0.176103	    0.200738	   -0.147930	   -0.079976	   -0.227906	   -0.024208	    0.030237	    0.006029	    0.092057	    0.096772	    0.188828	   -0.004987	    0.008801	    0.003815	    0.045603	   -0.017206	    0.028396	   -0.014806	   -0.106160	   -0.120966	   -0.079205	   -0.038470	   -0.117675	   -0.248553	   -0.111819	   -0.360372	   -0.069599	   -0.114843	   -0.184442	    0.054179	   -0.002220	    0.051959	    0.009540	    0.121873	    0.131413	    0.072542	    0.031695	    0.104238	   -0.033745	   -0.053095	   -0.086840	   -0.027767	    0.029704	    0.001938	   -0.031942	    0.111307	    0.079366	   -0.012566	    0.049854	    0.037288	   -0.055662	   -0.053299	   -0.108961	    0.062719	    0.088490	    0.151209
     2.250	0	0	    0	    0.003791	    0.014695	    0.018486	   -0.029939	    0.009524	   -0.020416	   -0.014776	    0.010938	   -0.003838	   -0.001340	    0.062323	    0.060983	   -0.029347	   -0.001344	   -0.030691	   -0.027793	    0.008175	   -0.019618	    0.061692	    0.049632	    0.111324	   -0.044475	    0.012762	   -0.031713	    0.032473	    0.009728	    0.042201	    0.002581	    0.034082	    0.036662	   -0.035330	    0.014311	   -0.021019	   -0.102513	   -0.036986	   -0.139499	    0.041336	   -0.003747	    0.037589	    0.053628	    0.030196	    0.083824	   -0.028130	    0.064055	    0.035925	    0.050633	   -0.000690	    0.049944	   -0.033171	   -0.040526	   -0.073697	   -0.049891	   -0.035332	   -0.085223	   -0.050103	   -0.035176	   -0.085279	   -0.066458	   -0.006590	   -0.073048	    0.005950	   -0.011722	   -0.005772	    0.044645	    0.041915	    0.086559
     2.325	0	0	    0	    0.008485	    0.005071	    0.013556	   -0.013723	    0.011320	   -0.002403	   -0.009304	    0.016790	    0.007486	    0.005579	    0.026621	    0.032201	   -0.018441	    0.009727	   -0.008714	   -0.009706	    0.010002	    0.000296	    0.065172	    0.040518	    0.105690	   -0.048687	   -0.025602	   -0.074288	    0.036499	    0.014121	    0.050620	   -0.009701	    0.047258	    0.037557	   -0.064718	    0.037981	   -0.026737	   -0.090890	   -0.006403	   -0.097294	    0.047267	    0.095749	    0.143017	    0.043711	    0.043557	    0.087268	   -0.009503	    0.042969	    0.033466	    0.051594	   -0.019702	    0.031892	   -0.029899	   -0.050085	   -0.079984	   -0.005084	   -0.053279	   -0.058362	    0.005452	   -0.063007	   -0.057556	   -0.038834	   -0.050519	   -0.089353	    0.002597	    0.015776	    0.018372	    0.054358	    0.035961	    0.090319
     2.400	0	0	    0	    0.018646	    0.005099	    0.023745	   -0.004996	    0.018139	    0.013143	    0.008954	    0.023219	    0.032173	    0.017269	    0.038699	    0.055968	   -0.048485	    0.016451	   -0.032034	    0.016860	    0.011261	    0.028121	    0.111981	    0.044478	    0.156459	   -0.041384	   -0.028233	   -0.069617	    0.019125	   -0.010201	    0.008924	   -0.130258	   -0.014581	   -0.144839	   -0.109108	   -0.032248	   -0.141355	   -0.147542	   -0.018769	   -0.166311	   -0.052415	    0.033204	   -0.019211	    0.040709	    0.014463	    0.055172	    0.040873	    0.071953	    0.112826	    0.071915	   -0.017922	    0.053993	   -0.013039	   -0.052079	   -0.065118	    0.094628	    0.012441	    0.107069	    0.195830	    0.044521	    0.240351	    0.017535	   -0.019087	   -0.001552	   -0.027404	   -0.001443	   -0.028847	    0.091434	    0.045680	    0.137114
     2.475	0	0	    0	    0.063186	    0.022646	    0.085832	   -0.010952	    0.016784	    0.005832	   -0.012604	    0.052437	    0.039833	    0.013613	    0.109191	    0.122803	   -0.161128	    0.055058	   -0.106070	   -0.115023	    0.077427	   -0.037597	    0.143148	    0.075855	    0.219002	   -0.007827	   -0.009341	   -0.017168	    0.057229	   -0.028144	    0.029085	   -0.193136	   -0.111884	   -0.305019	   -0.111876	   -0.067166	   -0.179042	   -0.249697	   -0.085280	   -0.334977	   -0.113916	   -0.021749	   -0.135666	    0.062442	   -0.011249	    0.051193	    0.042127	    0.116872	    0.158999	    0.091909	    0.016412	    0.108321	   -0.026881	   -0.045929	   -0.072811	    0.094234	    0.067426	    0.161661	    0.229224	    0.178856	    0.408080	    0.053511	    0.034534	    0.088046	   -0.046796	   -0.037380	   -0.084177	    0.099211	    0.085443	    0.184654
     2.550	0	0	    0	    0.053857	    0.051991	    0.105849	    0.002801	    0.012448	    0.015249	    0.002033	    0.051110	    0.053143	    0.024246	    0.146833	    0.171079	   -0.157021	   -0.025336	   -0.182357	    0.001617	    0.028506	    0.030123	    0.105552	    0.091748	    0.197300	   -0.011889	    0.008960	   -0.002929	    0.050231	   -0.016881	    0.033350	   -0.056606	   -0.152397	   -0.209003	   -0.083301	   -0.023212	   -0.106514	   -0.227035	   -0.107731	   -0.334766	   -0.064290	   -0.079452	   -0.143742	    0.050618	    0.013112	    0.063730	    0.008934	    0.115927	    0.124861	    0.069301	    0.025789	    0.095090	   -0.025866	   -0.056956	   -0.082822	    0.014375	    0.052756	    0.067131	    0.009663	    0.144765	    0.154428	    0.022458	    0.056388	    0.078846	   -0.049984	   -0.043246	   -0.093230	    0.071785	    0.074181	    0.145966
     2.625	0	0	    0	    0.017597	    0.020193	    0.037790	   -0.011311	    0.017086	    0.005775	   -0.003924	    0.015539	    0.011615	    0.011950	    0.064484	    0.076433	   -0.017499	   -0.003432	   -0.020931	   -0.009153	    0.014641	    0.005488	    0.070563	    0.058392	    0.128955	   -0.031583	    0.005250	   -0.026333	    0.039022	   -0.004795	    0.034226	    0.027171	    0.015472	    0.042643	   -0.029635	    0.015102	   -0.014532	   -0.086063	   -0.050444	   -0.136506	    0.047588	   -0.008203	    0.039385	    0.073295	    0.039527	    0.112822	   -0.014895	    0.071897	    0.057001	    0.058273	   -0.000113	    0.058160	   -0.006777	   -0.050044	   -0.056821	   -0.023351	   -0.019435	   -0.042785	   -0.039780	   -0.026359	   -0.066139	   -0.023529	    0.011544	   -0.011985	    0.006608	   -0.018438	   -0.011831	    0.061998	    0.044452	    0.106450
     2.700	0	0	    0	    0.014034	    0.009181	    0.023214	   -0.004912	    0.021118	    0.016206	    0.001502	    0.026154	    0.027656	    0.010096	    0.030790	    0.040886	   -0.008485	    0.018377	    0.009892	   -0.004327	    0.018031	    0.013703	    0.060318	    0.041801	    0.102119	   -0.051698	   -0.011326	   -0.063024	    0.037323	    0.013750	    0.051073	    0.019883	    0.051584	    0.071467	   -0.027549	    0.035638	    0.008089	   -0.077459	   -0.002481	   -0.079939	    0.083971	    0.103758	    0.187729	    0.069415	    0.061818	    0.131234	   -0.016012	    0.036210	    0.020198	    0.044024	   -0.011400	    0.032623	   -0.015120	   -0.033441	   -0.048561	   -0.027535	   -0.033671	   -0.061207	   -0.041809	   -0.043958	   -0.085767	   -0.019607	   -0.025627	   -0.045233	    0.000687	    0.026984	    0.027671	    0.055475	    0.044862	    0.100337
     2.775	0	0	    0	    0.008768	    0.009199	    0.017966	   -0.005879	    0.023997	    0.018118	    0.000180	    0.022777	    0.022957	    0.016502	    0.026809	    0.043311	   -0.012289	    0.030080	    0.017791	   -0.003208	    0.018157	    0.014949	    0.067773	    0.034326	    0.102100	   -0.053412	   -0.053256	   -0.106668	    0.025259	    0.015491	    0.040750	   -0.040856	    0.047481	    0.006625	   -0.088356	    0.035361	   -0.052995	   -0.076879	    0.011061	   -0.065819	    0.034295	    0.118224	    0.152519	    0.031061	    0.046607	    0.077668	   -0.007794	    0.027802	    0.020008	    0.036179	   -0.029334	    0.006845	   -0.012459	   -0.038984	   -0.051443	    0.037664	   -0.032309	    0.005355	    0.074317	   -0.042670	    0.031647	    0.003128	   -0.019583	   -0.016455	   -0.017102	    0.027381	    0.010279	    0.043645	    0.032406	    0.076051
     2.850	0	0	    0	    0.022441	    0.003883	    0.026324	   -0.020075	    0.025326	    0.005251	    0.001065	    0.034352	    0.035417	    0.011563	    0.048930	    0.060493	   -0.057506	    0.019822	   -0.037684	    0.002490	    0.062493	    0.064983	    0.112920	    0.051343	    0.164262	   -0.037151	   -0.053253	   -0.090404	    0.023769	   -0.027104	   -0.003335	   -0.176658	   -0.040888	   -0.217546	   -0.110607	   -0.045718	   -0.156325	   -0.206239	   -0.008813	   -0.215051	   -0.046875	    0.013095	   -0.033781	    0.027008	    0.001392	    0.028400	    0.040806	    0.067428	    0.108234	    0.066972	   -0.031716	    0.035256	   -0.028464	   -0.033151	   -0.061615	    0.080777	    0.046385	    0.127161	    0.195244	    0.112402	    0.307646	    0.023306	    0.016726	    0.040032	   -0.056040	   -0.012709	   -0.068749	    0.098452	    0.046761	    0.145212
     2.925	0	0	    0	    0.041588	    0.032038	    0.073626	   -0.019160	    0.017756	   -0.001404	   -0.001655	    0.040261	    0.038606	    0.009022	    0.100456	    0.109478	   -0.130852	    0.025522	   -0.105330	   -0.019379	    0.064602	    0.045222	    0.110397	    0.075951	    0.186347	   -0.014584	   -0.007950	   -0.022534	    0.039448	   -0.024153	    0.015295	   -0.159625	   -0.121458	   -0.281084	   -0.067596	   -0.046868	   -0.114464	   -0.243289	   -0.110823	   -0.354113	   -0.079350	   -0.042346	   -0.121696	    0.034837	   -0.005337	    0.029500	    0.016591	    0.116873	    0.133464	    0.072262	    0.014281	    0.086543	   -0.034086	   -0.051483	   -0.085569	    0.042701	    0.065553	    0.108254	    0.096100	    0.172530	    0.268630	    0.017576	    0.054967	    0.072543	   -0.067573	   -0.036651	   -0.104224	    0.076581	    0.080968	    0.157548
     3.000	0	0	    0	    0.010524	    0.023134	    0.033658	   -0.012692	    0.014492	    0.001800	   -0.009856	    0.021147	    0.011291	    0.016384	    0.068993	    0.085377	   -0.040513	    0.012229	   -0.028285	   -0.008192	    0.022144	    0.013952	    0.086870	    0.058681	    0.145551	   -0.043550	    0.005484	   -0.038066	    0.033654	   -0.005978	    0.027676	   -0.054442	   -0.022491	   -0.076934	   -0.090852	    0.001927	   -0.088925	   -0.106187	   -0.111364	   -0.217550	   -0.069746	   -0.017592	   -0.087338	    0.021552	    0.015617	    0.037169	   -0.020233	    0.066302	    0.046069	    0.032173	   -0.013028	    0.019145	   -0.012220	   -0.033918	   -0.046138	    0.038340	    0.003514	    0.041853	    0.076182	    0.006568	    0.082750	   -0.008529	    0.031527	    0.022999	   -0.042341	   -0.034860	   -0.077201	    0.040932	    0.041869	    0.082800
     3.075	0	0	    0	    0.048173	    0.004103	    0.052276	   -0.004153	    0.028628	    0.024475	   -0.027087	    0.065085	    0.037999	    0.045567	    0.064784	    0.110351	   -0.064330	    0.025959	   -0.038370	   -0.070337	    0.101256	    0.030919	    0.133910	    0.067009	    0.200919	   -0.058099	   -0.046229	   -0.104328	    0.021610	   -0.024368	   -0.002757	   -0.201656	   -0.062446	   -0.264102	   -0.147918	   -0.069200	   -0.217118	   -0.208519	   -0.020050	   -0.228569	   -0.081382	   -0.012695	   -0.094077	    0.009503	   -0.009033	    0.000470	   -0.010189	    0.039526	    0.029338	    0.039989	   -0.029825	    0.010165	   -0.011863	   -0.031582	   -0.043446	    0.108837	    0.056749	    0.165586	    0.277761	    0.123755	    0.401515	    0.037123	    0.028389	    0.065512	   -0.051329	   -0.016060	   -0.067389	    0.034593	    0.025362	    0.059955
     3.150	0	0	    0	    0.101536	    0.073375	    0.174911	   -0.027719	    0.034680	    0.006961	   -0.071678	    0.110209	    0.038530	    0.038578	    0.184398	    0.222976	   -0.329267	    0.014077	   -0.315190	   -0.343827	    0.003561	   -0.340267	    0.166577	    0.112648	    0.279225	   -0.059002	   -0.056117	   -0.115119	    0.050038	   -0.033580	    0.016459	   -0.227696	   -0.139056	   -0.366752	   -0.152564	   -0.061372	   -0.213935	   -0.260709	   -0.074389	   -0.335098	   -0.225554	   -0.084266	   -0.309820	    0.035846	   -0.017179	    0.018667	   -0.012616	    0.049242	    0.036626	    0.030731	   -0.028202	    0.002529	   -0.007405	   -0.051996	   -0.059402	    0.099006	    0.076725	    0.175731	    0.304539	    0.248233	    0.552772	    0.056133	    0.067083	    0.123216	   -0.046360	   -0.038816	   -0.085176	    0.027719	    0.017465	    0.045184
     3.225	0	0	    0	    0.098832	    0.103915	    0.202746	   -0.027423	    0.034240	    0.006818	   -0.061078	    0.108021	    0.046943	    0.014925	    0.235606	    0.250530	   -0.350324	   -0.095437	   -0.445761	   -0.327158	   -0.073564	   -0.400722	    0.147447	    0.139373	    0.286820	   -0.061531	   -0.057189	   -0.118720	    0.050677	   -0.030291	    0.020386	   -0.208427	   -0.136244	   -0.344671	   -0.124847	   -0.060499	   -0.185346	   -0.294115	   -0.091242	   -0.385357	   -0.252784	   -0.141569	   -0.394354	    0.027901	   -0.006602	    0.021299	   -0.014648	    0.051703	    0.037056	    0.022318	   -0.035985	   -0.013667	    0.007448	   -0.041949	   -0.034501	    0.085619	    0.081886	    0.167505	    0.245986	    0.257945	    0.503931	    0.034443	    0.083510	    0.117953	   -0.059179	   -0.042672	   -0.101851	    0.026656	    0.011766	    0.038421
     3.300	0	0	    0	    0.068556	    0.086290	    0.154846	   -0.012684	    0.030134	    0.017450	   -0.010343	    0.077154	    0.066811	    0.037445	    0.200563	    0.238008	   -0.259536	   -0.097391	   -0.356927	   -0.057798	   -0.056443	   -0.114241	    0.126939	    0.117278	    0.244217	   -0.054893	   -0.061803	   -0.116696	    0.042420	   -0.035623	    0.006797	   -0.085645	   -0.123293	   -0.208939	   -0.097609	   -0.037678	   -0.135287	   -0.269487	   -0.111447	   -0.380935	   -0.160961	   -0.136776	   -0.297737	    0.029062	   -0.002180	    0.026882	    0.015599	    0.045738	    0.061337	    0.040376	   -0.047497	   -0.007121	   -0.000173	   -0.031332	   -0.031505	    0.027563	    0.063387	    0.090950	    0.097952	    0.198391	    0.296343	   -0.001219	    0.076465	    0.075246	   -0.074049	   -0.042414	   -0.116463	    0.058730	    0.021940	    0.080670
     3.375	0	0	    0	    0.011188	    0.039138	    0.050326	   -0.037555	    0.014557	   -0.022999	   -0.026876	    0.010476	   -0.016400	    0.004091	    0.101273	    0.105365	   -0.078943	    0.013643	   -0.065301	   -0.012972	    0.015297	    0.002325	    0.088312	    0.071021	    0.159333	   -0.027348	   -0.038140	   -0.065488	    0.050478	   -0.028544	    0.021934	    0.027296	    0.021498	    0.048794	   -0.072189	   -0.023133	   -0.095322	   -0.146186	   -0.072339	   -0.218525	   -0.055935	   -0.074517	   -0.130452	    0.048501	    0.008268	    0.056769	   -0.003450	    0.075367	    0.071917	    0.067148	   -0.015309	    0.051839	   -0.026314	   -0.031749	   -0.058063	   -0.028979	    0.006768	   -0.022211	   -0.014028	    0.049467	    0.035439	   -0.043358	    0.037729	   -0.005629	   -0.036858	   -0.044147	   -0.081004	    0.066476	    0.047628	    0.114104
     3.450	0	0	    0	    0.006427	    0.008900	    0.015327	   -0.034619	    0.018026	   -0.016593	   -0.022684	    0.016456	   -0.006228	    0.000738	    0.032100	    0.032839	   -0.036099	    0.002582	   -0.033517	   -0.000682	    0.011865	    0.011183	    0.079161	    0.048964	    0.128125	   -0.013050	    0.001348	   -0.011702	    0.048088	    0.015612	    0.063700	    0.015891	    0.068062	    0.083953	   -0.054321	    0.002631	   -0.051690	   -0.098423	   -0.022513	   -0.120936	    0.027447	    0.054968	    0.082415	    0.048209	    0.043541	    0.091750	   -0.009915	    0.070728	    0.060813	    0.065452	   -0.004054	    0.061398	   -0.019305	   -0.033288	   -0.052593	   -0.049529	   -0.045344	   -0.094873	   -0.032094	   -0.023959	   -0.056052	   -0.052155	    0.001136	   -0.051019	   -0.007306	    0.004604	   -0.002702	    0.068062	    0.048568	    0.116629
     3.525	0	0	    0	    0.006692	    0.008934	    0.015627	   -0.029843	    0.018384	   -0.011459	   -0.007775	    0.018601	    0.010826	    0.012343	    0.026032	    0.038376	   -0.041422	    0.012082	   -0.029340	    0.000790	    0.017265	    0.018055	    0.092223	    0.049760	    0.141983	   -0.023322	    0.012104	   -0.011219	    0.014295	    0.020122	    0.034418	   -0.072810	    0.044895	   -0.027915	   -0.114121	   -0.019208	   -0.133329	   -0.115748	    0.001097	   -0.114651	   -0.059146	    0.085584	    0.026438	    0.027420	    0.028576	    0.055995	    0.000847	    0.071677	    0.072524	    0.066663	   -0.007413	    0.059250	   -0.023426	   -0.035527	   -0.058952	    0.027621	   -0.029460	   -0.001839	    0.097889	    0.001042	    0.098931	   -0.019454	   -0.014008	   -0.033463	   -0.037109	    0.018004	   -0.019105	    0.064851	    0.048175	    0.113026
     3.600	0	0	    0	    0.027161	    0.011322	    0.038483	   -0.024440	    0.019029	   -0.005411	   -0.014869	    0.046020	    0.031150	    0.023339	    0.049445	    0.072783	   -0.073218	    0.013936	   -0.059282	   -0.010637	    0.076557	    0.065919	    0.122514	    0.061434	    0.183948	   -0.036163	    0.005785	   -0.030378	    0.019027	   -0.032857	   -0.013830	   -0.151813	   -0.051981	   -0.203793	   -0.139418	   -0.063359	   -0.202777	   -0.234248	   -0.049104	   -0.283352	   -0.085819	   -0.001196	   -0.087016	    0.030224	   -0.005651	    0.024573	   -0.007054	    0.083161	    0.076107	    0.056111	   -0.006120	    0.049991	   -0.011600	   -0.033386	   -0.044986	    0.082485	    0.046015	    0.128499	    0.209979	    0.137454	    0.347432	    0.010308	    0.030452	    0.040760	   -0.057599	   -0.015710	   -0.073308	    0.059866	    0.046297	    0.106162
     3.675	0	0	    0	    0.047926	    0.041936	    0.089862	   -0.010507	    0.033264	    0.022757	   -0.013450	    0.064596	    0.051146	    0.008908	    0.115297	    0.124205	   -0.163506	    0.039062	   -0.124444	   -0.080859	    0.077631	   -0.003228	    0.135910	    0.086034	    0.221945	   -0.069240	   -0.011452	   -0.080692	    0.035658	   -0.027693	    0.007964	   -0.134529	   -0.071256	   -0.205786	   -0.134728	   -0.059310	   -0.194038	   -0.261991	   -0.103012	   -0.365003	   -0.117018	   -0.033764	   -0.150782	    0.046135	   -0.006644	    0.039490	    0.001320	    0.056668	    0.057989	    0.035950	   -0.020554	    0.015396	    0.000829	   -0.028943	   -0.028114	    0.103655	    0.063268	    0.166922	    0.245882	    0.178009	    0.423891	    0.022060	    0.062044	    0.084104	   -0.054417	   -0.030240	   -0.084657	    0.047565	    0.034466	    0.082031
     3.750	0	0	    0	    0.069672	    0.050822	    0.120494	   -0.014892	    0.043917	    0.029025	   -0.031528	    0.103420	    0.071892	    0.024688	    0.148745	    0.173433	   -0.251242	    0.037041	   -0.214201	   -0.232542	    0.055319	   -0.177223	    0.161667	    0.096458	    0.258124	   -0.078279	   -0.059723	   -0.138002	    0.049786	   -0.019932	    0.029854	   -0.168006	   -0.068156	   -0.236161	   -0.137115	   -0.054566	   -0.191682	   -0.270329	   -0.103644	   -0.373973	   -0.189063	   -0.045775	   -0.234837	    0.058057	   -0.005917	    0.052139	    0.004715	    0.060199	    0.064915	    0.032274	   -0.031369	    0.000906	    0.010476	   -0.024728	   -0.014252	    0.131800	    0.084217	    0.216017	    0.304530	    0.226851	    0.531381	    0.043585	    0.070178	    0.113763	   -0.047907	   -0.031700	   -0.079607	    0.050122	    0.030343	    0.080465
     3.825	0	0	    0	    0.079040	    0.079840	    0.158880	   -0.015814	    0.045507	    0.029693	   -0.035226	    0.114996	    0.079770	    0.010443	    0.207922	    0.218365	   -0.303958	   -0.061751	   -0.365710	   -0.213488	   -0.010434	   -0.223922	    0.144148	    0.122077	    0.266225	   -0.065541	   -0.084174	   -0.149716	    0.052125	   -0.019628	    0.032498	   -0.157127	   -0.097063	   -0.254190	   -0.114428	   -0.051777	   -0.166205	   -0.285177	   -0.096213	   -0.381390	   -0.185101	   -0.092420	   -0.277521	    0.047224	    0.004613	    0.051836	    0.001085	    0.053260	    0.054345	    0.028172	   -0.032457	   -0.004285	    0.012993	   -0.027130	   -0.014136	    0.107918	    0.092326	    0.200244	    0.251420	    0.249692	    0.501113	    0.040327	    0.086288	    0.126615	   -0.046604	   -0.032019	   -0.078622	    0.033186	    0.024593	    0.057778
     3.900	0	0	    0	    0.058060	    0.068346	    0.126406	   -0.004318	    0.046183	    0.041865	   -0.008724	    0.094982	    0.086258	    0.027156	    0.191717	    0.218874	   -0.195367	   -0.050653	   -0.246021	   -0.109294	    0.040722	   -0.068572	    0.131692	    0.093779	    0.225471	   -0.063534	   -0.090850	   -0.154383	    0.043706	   -0.018026	    0.025680	   -0.119996	   -0.059431	   -0.179427	   -0.108276	   -0.039093	   -0.147369	   -0.252002	   -0.103214	   -0.355216	   -0.114440	   -0.058258	   -0.172698	    0.038386	   -0.004993	    0.033393	   -0.003071	    0.048835	    0.045763	    0.020908	   -0.044278	   -0.023370	    0.011328	   -0.019136	   -0.007808	    0.092948	    0.065156	    0.158103	    0.219292	    0.187768	    0.407060	    0.013243	    0.070974	    0.084217	   -0.046429	   -0.030975	   -0.077405	    0.030799	    0.012098	    0.042897
     3.975	0	0	    0	    0.056568	    0.051088	    0.107657	   -0.006177	    0.050235	    0.044059	   -0.007125	    0.094903	    0.087777	    0.044334	    0.168719	    0.213054	   -0.185589	    0.007204	   -0.178385	   -0.123868	    0.060377	   -0.063491	    0.130638	    0.091551	    0.222189	   -0.063273	   -0.086332	   -0.149606	    0.048347	   -0.022462	    0.025885	   -0.135415	   -0.051848	   -0.187263	   -0.109246	   -0.041253	   -0.150499	   -0.245706	   -0.088058	   -0.333763	   -0.122315	   -0.032807	   -0.155122	    0.036560	   -0.006039	    0.030521	   -0.005641	    0.050865	    0.045224	    0.021468	   -0.051931	   -0.030463	    0.016190	   -0.016282	   -0.000092	    0.104961	    0.069147	    0.174108	    0.243728	    0.193976	    0.437704	    0.019060	    0.062060	    0.081120	   -0.047040	   -0.025408	   -0.072448	    0.024495	    0.017623	    0.042118
     4.050	0	0	    0	    0.067134	    0.054264	    0.121398	   -0.017284	    0.053828	    0.036544	   -0.018583	    0.111916	    0.093333	    0.042211	    0.179223	    0.221434	   -0.213102	    0.007426	   -0.205676	   -0.173390	    0.064636	   -0.108754	    0.134341	    0.097676	    0.232017	   -0.064495	   -0.073457	   -0.137953	    0.051807	   -0.021160	    0.030647	   -0.166429	   -0.061721	   -0.228150	   -0.139152	   -0.041564	   -0.180716	   -0.260285	   -0.088993	   -0.349278	   -0.141888	   -0.035362	   -0.177250	    0.038436	   -0.007350	    0.031086	   -0.009073	    0.051723	    0.042650	    0.031820	   -0.045230	   -0.013410	    0.012097	   -0.023439	   -0.011342	    0.117005	    0.085436	    0.202442	    0.266142	    0.217586	    0.483728	    0.024038	    0.066341	    0.090379	   -0.044798	   -0.028128	   -0.072926	    0.026656	    0.011766	    0.038421
     4.125	0	0	    0	    0.071505	    0.069669	    0.141175	   -0.020393	    0.052370	    0.031977	   -0.028558	    0.120153	    0.091595	    0.016786	    0.202467	    0.219253	   -0.262922	   -0.013535	   -0.276457	   -0.188666	    0.026683	   -0.161984	    0.137904	    0.103047	    0.240952	   -0.067808	   -0.073078	   -0.140886	    0.053271	   -0.022149	    0.031122	   -0.161713	   -0.081968	   -0.243680	   -0.124256	   -0.052717	   -0.176972	   -0.279279	   -0.089562	   -0.368841	   -0.161887	   -0.055682	   -0.217569	    0.041577	   -0.005870	    0.035707	   -0.012858	    0.048793	    0.035935	    0.029447	   -0.036642	   -0.007195	    0.009210	   -0.026842	   -0.017632	    0.101534	    0.091904	    0.193438	    0.239669	    0.230458	    0.470127	    0.019113	    0.076242	    0.095355	   -0.049853	   -0.026035	   -0.075888	    0.031045	    0.010256	    0.041301
     4.200	0	0	    0	    0.054687	    0.065799	    0.120487	   -0.019161	    0.052722	    0.033561	   -0.018440	    0.112544	    0.094104	    0.027746	    0.192106	    0.219852	   -0.212885	   -0.030930	   -0.243815	   -0.144571	    0.050526	   -0.094046	    0.121186	    0.091164	    0.212350	   -0.074406	   -0.071908	   -0.146313	    0.044371	   -0.019024	    0.025347	   -0.146062	   -0.058701	   -0.204763	   -0.128372	   -0.037740	   -0.166112	   -0.258274	   -0.099401	   -0.357675	   -0.132268	   -0.043141	   -0.175409	    0.029768	   -0.006684	    0.023084	   -0.016141	    0.047034	    0.030892	    0.021446	   -0.042862	   -0.021416	    0.005557	   -0.022491	   -0.016934	    0.091310	    0.074052	    0.165362	    0.224872	    0.195195	    0.420067	    0.001762	    0.069705	    0.071467	   -0.055830	   -0.025245	   -0.081076	    0.028971	    0.009504	    0.038476
     4.275	0	0	    0	    0.067519	    0.056391	    0.123910	   -0.027959	    0.054545	    0.026585	   -0.049822	    0.130894	    0.081072	    0.024197	    0.194407	    0.218603	   -0.245853	    0.004893	   -0.240960	   -0.218550	    0.060554	   -0.157995	    0.156694	    0.088105	    0.244799	   -0.074196	   -0.075359	   -0.149555	    0.050371	   -0.023941	    0.026430	   -0.200726	   -0.064081	   -0.264807	   -0.156368	   -0.046980	   -0.203349	   -0.276103	   -0.086218	   -0.362322	   -0.168903	   -0.032330	   -0.201233	    0.052004	   -0.013589	    0.038414	    0.032545	    0.037872	    0.070417	    0.030957	   -0.047635	   -0.016678	    0.008999	   -0.025521	   -0.016523	    0.122074	    0.089817	    0.211891	    0.281167	    0.221191	    0.502358	    0.011889	    0.063557	    0.075446	   -0.053780	   -0.027494	   -0.081274	    0.073409	    0.007296	    0.080705
     4.350	0	0	    0	    0.102269	    0.079104	    0.181372	   -0.021475	    0.054941	    0.033465	   -0.091275	    0.139078	    0.047804	   -0.003840	    0.232313	    0.228473	   -0.339325	   -0.037840	   -0.377165	   -0.271970	   -0.001211	   -0.273182	    0.179246	    0.120498	    0.299744	   -0.043976	   -0.071807	   -0.115782	    0.093635	   -0.023033	    0.070601	   -0.225511	   -0.110643	   -0.336154	   -0.161232	   -0.060498	   -0.221729	   -0.295906	   -0.083643	   -0.379549	   -0.229828	   -0.070406	   -0.300235	    0.086416	    0.005927	    0.092343	    0.036468	    0.096447	    0.132915	    0.073738	   -0.023093	    0.050645	    0.004077	   -0.025194	   -0.021117	    0.124374	    0.108926	    0.233300	    0.278787	    0.263235	    0.542022	    0.038688	    0.084690	    0.123379	   -0.051876	   -0.029417	   -0.081293	    0.083095	    0.062481	    0.145576
     4.425	0	0	    0	    0.100799	    0.102876	    0.203674	   -0.005431	    0.058386	    0.052955	   -0.035770	    0.119042	    0.083272	    0.011499	    0.226553	    0.238052	   -0.303920	   -0.083912	   -0.387832	   -0.177107	    0.001019	   -0.176087	    0.161654	    0.121798	    0.283452	   -0.049322	   -0.028493	   -0.077814	    0.087765	    0.004338	    0.092103	   -0.188246	   -0.101121	   -0.289367	   -0.134757	   -0.047101	   -0.181858	   -0.286714	   -0.097251	   -0.383966	   -0.183049	   -0.090741	   -0.273790	    0.084212	    0.028280	    0.112492	    0.006221	    0.104240	    0.110461	    0.044734	   -0.001195	    0.043539	    0.007089	   -0.026568	   -0.019479	    0.100852	    0.095350	    0.196202	    0.226426	    0.226300	    0.452726	    0.026992	    0.093672	    0.120664	   -0.037279	   -0.023207	   -0.060486	    0.062318	    0.054567	    0.116885
     4.500	0	0	    0	    0.090247	    0.090834	    0.181082	   -0.007678	    0.063765	    0.056087	   -0.033708	    0.125506	    0.091798	    0.042194	    0.219911	    0.262105	   -0.272756	   -0.045012	   -0.317768	   -0.214405	    0.051337	   -0.163068	    0.159062	    0.111941	    0.271003	   -0.057123	   -0.044981	   -0.102104	    0.053583	   -0.002807	    0.050776	   -0.187684	   -0.078349	   -0.266033	   -0.142413	   -0.039148	   -0.181561	   -0.269892	   -0.084140	   -0.354032	   -0.178980	   -0.052419	   -0.231400	    0.053122	    0.012833	    0.065956	   -0.012727	    0.071889	    0.059162	    0.038705	   -0.029542	    0.009162	    0.013571	   -0.020881	   -0.007310	    0.105102	    0.083904	    0.189005	    0.249160	    0.204959	    0.454119	    0.018926	    0.081725	    0.100650	   -0.041031	   -0.016309	   -0.057340	    0.036074	    0.033417	    0.069491
     4.575	0	0	    0	    0.108238	    0.087179	    0.195417	   -0.025127	    0.067823	    0.042696	   -0.084928	    0.142601	    0.057673	    0.028603	    0.233422	    0.262025	   -0.347006	   -0.054824	   -0.401830	   -0.390409	    0.016995	   -0.373414	    0.165157	    0.129734	    0.294892	   -0.058457	   -0.061071	   -0.119528	    0.056770	   -0.027313	    0.029458	   -0.222711	   -0.089268	   -0.311979	   -0.169681	   -0.046784	   -0.216464	   -0.290593	   -0.081007	   -0.371600	   -0.251466	   -0.067795	   -0.319261	    0.043211	    0.000566	    0.043777	   -0.018675	    0.027883	    0.009207	    0.040117	   -0.032495	    0.007622	    0.020979	   -0.019362	    0.001617	    0.126149	    0.104724	    0.230873	    0.286213	    0.250534	    0.536747	    0.026517	    0.083397	    0.109914	   -0.038373	   -0.016337	   -0.054709	    0.012801	    0.010000	    0.022801
     4.650	0	0	    0	    0.118656	    0.116593	    0.235249	   -0.031607	    0.065670	    0.034063	   -0.101183	    0.136314	    0.035131	   -0.002916	    0.250186	    0.247270	   -0.384391	   -0.109123	   -0.493515	   -0.391704	   -0.085987	   -0.477691	    0.162871	    0.140105	    0.302976	   -0.058167	   -0.063392	   -0.121559	    0.064848	   -0.025247	    0.039601	   -0.222506	   -0.103903	   -0.326409	   -0.169032	   -0.058962	   -0.227994	   -0.314295	   -0.084388	   -0.398684	   -0.283624	   -0.117163	   -0.400787	    0.051302	    0.003098	    0.054400	   -0.010791	    0.028070	    0.017278	    0.033758	   -0.035828	   -0.002070	    0.023229	   -0.021147	    0.002082	    0.120674	    0.117531	    0.238205	    0.273525	    0.270243	    0.543768	    0.027297	    0.090490	    0.117787	   -0.045791	   -0.019039	   -0.064831	    0.018230	    0.001208	    0.019438
     4.725	0	0	    0	    0.114198	    0.116652	    0.230850	   -0.038417	    0.067675	    0.029258	   -0.101975	    0.139125	    0.037149	   -0.000174	    0.244124	    0.243951	   -0.380423	   -0.113773	   -0.494196	   -0.384906	   -0.070008	   -0.454914	    0.171838	    0.139792	    0.311629	   -0.056285	   -0.064921	   -0.121206	    0.062353	   -0.024190	    0.038162	   -0.232834	   -0.097543	   -0.330377	   -0.180829	   -0.055357	   -0.236186	   -0.317277	   -0.090492	   -0.407769	   -0.290871	   -0.115318	   -0.406189	    0.060480	    0.006458	    0.066938	    0.012510	    0.040854	    0.053364	    0.028005	   -0.043100	   -0.015095	    0.019685	   -0.019187	    0.000498	    0.119816	    0.119174	    0.238990	    0.271276	    0.266177	    0.537452	    0.014400	    0.092856	    0.107256	   -0.054750	   -0.022833	   -0.077584	    0.047127	    0.003628	    0.050755
     4.800	0	0	    0	    0.123483	    0.114961	    0.238443	   -0.047809	    0.065021	    0.017212	   -0.122148	    0.138321	    0.016173	   -0.025298	    0.245610	    0.220312	   -0.403217	   -0.120662	   -0.523879	   -0.403909	   -0.072116	   -0.476025	    0.187174	    0.149499	    0.336673	   -0.034566	   -0.064553	   -0.099120	    0.066288	   -0.024370	    0.041918	   -0.260318	   -0.112023	   -0.372341	   -0.200601	   -0.069204	   -0.269805	   -0.341337	   -0.096694	   -0.438032	   -0.334641	   -0.132657	   -0.467298	    0.070686	    0.015913	    0.086599	    0.018856	    0.083819	    0.102675	    0.074981	   -0.030223	    0.044758	    0.015593	   -0.018468	   -0.002875	    0.117668	    0.130919	    0.248588	    0.264515	    0.277350	    0.541865	    0.011287	    0.095765	    0.107052	   -0.064419	   -0.029182	   -0.093601	    0.075137	    0.045837	    0.120974
     4.875	0	0	    0	    0.121412	    0.124545	    0.245956	   -0.052847	    0.066334	    0.013487	   -0.119804	    0.132615	    0.012812	   -0.030432	    0.233526	    0.203094	   -0.398631	   -0.145736	   -0.544367	   -0.404162	   -0.082907	   -0.487068	    0.178773	    0.157317	    0.336089	   -0.033148	   -0.031024	   -0.064172	    0.063843	   -0.021609	    0.042233	   -0.262782	   -0.118289	   -0.381071	   -0.187778	   -0.076141	   -0.263919	   -0.351123	   -0.110327	   -0.461449	   -0.343654	   -0.155202	   -0.498856	    0.062400	    0.020510	    0.082909	   -0.010698	    0.100429	    0.089731	    0.072196	    0.007510	    0.079706	    0.008954	   -0.018812	   -0.009858	    0.096414	    0.135842	    0.232257	    0.243362	    0.279312	    0.522673	   -0.000972	    0.101036	    0.100064	   -0.072263	   -0.034829	   -0.107092	    0.052771	    0.049820	    0.102591
     4.950	0	0	    0	    0.091734	    0.124022	    0.215757	   -0.024804	    0.059841	    0.035038	   -0.015047	    0.108062	    0.093015	    0.001241	    0.220767	    0.222009	   -0.368126	   -0.151337	   -0.519462	   -0.245275	   -0.086605	   -0.331880	    0.155353	    0.142316	    0.297669	   -0.067481	   -0.025517	   -0.092999	    0.050593	   -0.025683	    0.024910	   -0.138269	   -0.107625	   -0.245894	   -0.127649	   -0.053255	   -0.180904	   -0.335233	   -0.113043	   -0.448276	   -0.260875	   -0.175833	   -0.436708	    0.051881	    0.011570	    0.063452	   -0.010221	    0.049258	    0.039037	    0.035057	   -0.020037	    0.015020	    0.004817	   -0.017613	   -0.012796	    0.037403	    0.096970	    0.134373	    0.138635	    0.233995	    0.372630	   -0.025157	    0.092719	    0.067561	   -0.068743	   -0.037589	   -0.106332	    0.031212	    0.016486	    0.047698
     5.025	0	0	    0	    0.058650	    0.069222	    0.127871	   -0.000802	    0.058033	    0.057231	   -0.000899	    0.077258	    0.076359	    0.037393	    0.150907	    0.188301	   -0.213294	   -0.039212	   -0.252505	   -0.178514	    0.041040	   -0.137474	    0.151461	    0.110739	    0.262200	   -0.060902	   -0.053690	   -0.114593	    0.044085	   -0.021208	    0.022876	   -0.077844	    0.002548	   -0.075296	   -0.122578	   -0.029897	   -0.152475	   -0.264599	   -0.103937	   -0.368535	   -0.177435	   -0.065267	   -0.242702	    0.055367	    0.004755	    0.060122	   -0.016509	    0.047791	    0.031282	    0.025136	   -0.032465	   -0.007330	    0.020214	   -0.014369	    0.005845	    0.065318	    0.058915	    0.124233	    0.195276	    0.160459	    0.355735	   -0.014925	    0.070201	    0.055277	   -0.046923	   -0.027421	   -0.074344	    0.025119	    0.006121	    0.031240
     5.100	0	0	    0	    0.077839	    0.051733	    0.129572	   -0.006442	    0.072079	    0.065637	   -0.005383	    0.107791	    0.102408	    0.035045	    0.156423	    0.191468	   -0.269959	   -0.001233	   -0.271192	   -0.302638	    0.049496	   -0.253142	    0.169896	    0.117481	    0.287377	   -0.051502	   -0.077421	   -0.128923	    0.048819	   -0.022666	    0.026153	   -0.162026	   -0.000003	   -0.162029	   -0.163702	   -0.046351	   -0.210054	   -0.292845	   -0.085480	   -0.378325	   -0.218605	   -0.042853	   -0.261457	    0.060784	    0.005169	    0.065952	   -0.011454	    0.048569	    0.037115	    0.025012	   -0.048768	   -0.023757	    0.025775	   -0.007375	    0.018400	    0.124900	    0.095060	    0.219961	    0.269884	    0.226104	    0.495988	    0.005818	    0.074995	    0.080813	   -0.043440	   -0.019475	   -0.062916	    0.025593	    0.002617	    0.028210
     5.175	0	0	    0	    0.105218	    0.083887	    0.189105	   -0.016044	    0.079043	    0.063000	   -0.059212	    0.141411	    0.082200	    0.012906	    0.202078	    0.214984	   -0.364484	   -0.073303	   -0.437787	   -0.350649	   -0.039665	   -0.390314	    0.186764	    0.145311	    0.332075	   -0.048898	   -0.075263	   -0.124161	    0.066827	   -0.029413	    0.037415	   -0.212033	   -0.059450	   -0.271482	   -0.173677	   -0.055850	   -0.229527	   -0.317738	   -0.103938	   -0.421677	   -0.281719	   -0.086103	   -0.367822	    0.081046	    0.014580	    0.095626	    0.020876	    0.064810	    0.085685	    0.065171	   -0.052230	    0.012941	    0.029020	   -0.005471	    0.023548	    0.134197	    0.136882	    0.271078	    0.273338	    0.275786	    0.549124	    0.016482	    0.099603	    0.116086	   -0.054564	   -0.017311	   -0.071875	    0.082021	    0.025263	    0.107284
     5.250	0	0	    0	    0.118289	    0.101800	    0.220089	   -0.017895	    0.080727	    0.062831	   -0.067856	    0.141295	    0.073439	   -0.010680	    0.224431	    0.213751	   -0.379709	   -0.108441	   -0.488150	   -0.342812	   -0.044890	   -0.387702	    0.194610	    0.149937	    0.344547	   -0.024933	   -0.047681	   -0.072614	    0.097601	   -0.015670	    0.081932	   -0.232244	   -0.082335	   -0.314579	   -0.172498	   -0.059391	   -0.231889	   -0.339149	   -0.107503	   -0.446652	   -0.298799	   -0.117856	   -0.416655	    0.110107	    0.030992	    0.141098	    0.041393	    0.103899	    0.145293	    0.093312	    0.009618	    0.102930	    0.022821	   -0.006966	    0.015855	    0.126440	    0.145080	    0.271520	    0.265087	    0.281193	    0.546280	    0.015597	    0.111119	    0.126716	   -0.050847	   -0.024704	   -0.075550	    0.094134	    0.062956	    0.157090
     5.325	0	0	    0	    0.113495	    0.110786	    0.224281	   -0.017746	    0.082611	    0.064866	   -0.048445	    0.140026	    0.091580	    0.005617	    0.218488	    0.224106	   -0.367142	   -0.118918	   -0.486060	   -0.314332	   -0.033049	   -0.347381	    0.191054	    0.154754	    0.345808	   -0.001481	   -0.007992	   -0.009473	    0.104994	    0.009322	    0.114316	   -0.229181	   -0.089063	   -0.318244	   -0.150910	   -0.054102	   -0.205013	   -0.334103	   -0.112862	   -0.446965	   -0.296850	   -0.116238	   -0.413088	    0.121364	    0.057016	    0.178380	    0.047306	    0.119538	    0.166843	    0.084240	    0.018013	    0.102253	    0.013908	   -0.003921	    0.009987	    0.102037	    0.139100	    0.241137	    0.232628	    0.271851	    0.504479	    0.009874	    0.116935	    0.126809	   -0.053304	   -0.011161	   -0.064464	    0.102149	    0.074509	    0.176658
     5.400	0	0	    0	    0.104127	    0.108899	    0.213027	   -0.026425	    0.084123	    0.057698	   -0.045088	    0.147343	    0.102255	    0.020987	    0.227790	    0.248777	   -0.357981	   -0.100422	   -0.458403	   -0.315267	   -0.009304	   -0.324571	    0.193197	    0.149455	    0.342652	   -0.000620	    0.013393	    0.012772	    0.085835	    0.017461	    0.103296	   -0.239330	   -0.079099	   -0.318429	   -0.160847	   -0.047450	   -0.208297	   -0.321272	   -0.105695	   -0.426967	   -0.291498	   -0.109168	   -0.400666	    0.099551	    0.055567	    0.155118	    0.054511	    0.118336	    0.172847	    0.090668	    0.010708	    0.101376	   -0.000196	   -0.005860	   -0.006056	    0.097558	    0.128206	    0.225765	    0.227692	    0.254800	    0.482492	    0.001790	    0.113261	    0.115052	   -0.064233	   -0.015520	   -0.079753	    0.107083	    0.075490	    0.182573
     5.475	0	0	    0	    0.102313	    0.104868	    0.207181	   -0.038200	    0.081904	    0.043705	   -0.064585	    0.149689	    0.085104	    0.015864	    0.238719	    0.254584	   -0.378838	   -0.097166	   -0.476004	   -0.355029	   -0.022352	   -0.377381	    0.191592	    0.155198	    0.346790	   -0.015384	    0.009536	   -0.005848	    0.060719	   -0.007644	    0.053075	   -0.253724	   -0.090301	   -0.344025	   -0.169636	   -0.054706	   -0.224343	   -0.331415	   -0.094932	   -0.426347	   -0.324594	   -0.113554	   -0.438149	    0.080343	    0.033743	    0.114086	    0.012447	    0.123686	    0.136133	    0.082928	    0.024989	    0.107917	    0.002878	   -0.018149	   -0.015271	    0.095697	    0.135271	    0.230967	    0.234827	    0.266820	    0.501647	   -0.009535	    0.116669	    0.107134	   -0.067408	   -0.023065	   -0.090472	    0.077895	    0.067395	    0.145290
     5.550	0	0	    0	    0.097706	    0.107421	    0.205126	   -0.044423	    0.077850	    0.033427	   -0.049859	    0.131412	    0.081553	    0.006960	    0.233649	    0.240609	   -0.389086	   -0.119529	   -0.508615	   -0.344962	   -0.057248	   -0.402210	    0.169089	    0.156303	    0.325392	   -0.051943	   -0.004506	   -0.056449	    0.039756	   -0.017770	    0.021986	   -0.230489	   -0.096202	   -0.326691	   -0.142876	   -0.054604	   -0.197480	   -0.345715	   -0.103997	   -0.449712	   -0.326647	   -0.136178	   -0.462825	    0.053061	    0.025644	    0.078705	   -0.030001	    0.078214	    0.048213	    0.047168	    0.002568	    0.049736	    0.003783	   -0.013336	   -0.009553	    0.056157	    0.138765	    0.194922	    0.194630	    0.277202	    0.471832	   -0.025630	    0.117541	    0.091912	   -0.073620	   -0.022147	   -0.095767	    0.033232	    0.032493	    0.065725
     5.625	0	0	    0	    0.044553	    0.088677	    0.133229	   -0.034249	    0.067740	    0.033491	   -0.043959	    0.094279	    0.050320	    0.016743	    0.182221	    0.198964	   -0.225054	   -0.140139	   -0.365193	   -0.093370	    0.004298	   -0.089072	    0.127129	    0.123759	    0.250888	   -0.080896	   -0.057041	   -0.137937	    0.030616	   -0.026868	    0.003748	   -0.075064	   -0.020055	   -0.095120	   -0.115369	   -0.040629	   -0.155998	   -0.313743	   -0.127116	   -0.440859	   -0.179316	   -0.117447	   -0.296763	    0.049839	    0.002835	    0.052674	   -0.018120	    0.034105	    0.015985	    0.022275	   -0.038201	   -0.015926	   -0.000323	   -0.003631	   -0.003954	    0.011328	    0.073589	    0.084917	    0.092865	    0.187287	    0.280152	   -0.062386	    0.101222	    0.038836	   -0.067545	   -0.030873	   -0.098419	    0.026692	    0.008217	    0.034909
     5.700	0	0	    0	    0.019010	    0.034576	    0.053586	   -0.020973	    0.057211	    0.036239	   -0.039318	    0.054856	    0.015539	    0.016382	    0.108559	    0.124941	   -0.121054	    0.016599	   -0.104455	   -0.029091	    0.036407	    0.007316	    0.109705	    0.084111	    0.193817	   -0.065682	   -0.075203	   -0.140885	    0.033823	   -0.007578	    0.026245	   -0.009081	    0.057943	    0.048862	   -0.089225	   -0.014052	   -0.103277	   -0.176031	   -0.069235	   -0.245266	   -0.085277	   -0.045835	   -0.131112	    0.075229	    0.013281	    0.088510	   -0.019577	    0.038376	    0.018800	    0.015851	   -0.053216	   -0.037365	    0.012419	    0.003492	    0.015911	    0.014266	    0.044904	    0.059170	    0.045018	    0.110996	    0.156014	   -0.048864	    0.066269	    0.017406	   -0.022375	   -0.017115	   -0.039490	    0.024675	    0.004673	    0.029348
     5.775	0	0	    0	    0.011648	    0.020952	    0.032601	   -0.018510	    0.059118	    0.040607	   -0.042549	    0.046957	    0.004407	    0.007069	    0.054295	    0.061364	   -0.070378	    0.045366	   -0.025012	   -0.006852	    0.047545	    0.040692	    0.088694	    0.064177	    0.152871	   -0.054911	   -0.083630	   -0.138541	    0.029292	   -0.006101	    0.023191	   -0.003776	    0.079938	    0.076162	   -0.084497	   -0.005166	   -0.089664	   -0.115202	    0.000062	   -0.115140	   -0.008252	    0.064120	    0.055868	    0.057839	    0.032730	    0.090569	   -0.020749	    0.039030	    0.018282	    0.016721	   -0.066245	   -0.049524	    0.012479	    0.010061	    0.022539	    0.003599	    0.024798	    0.028397	    0.030179	    0.056412	    0.086591	   -0.038996	    0.047893	    0.008897	    0.003208	    0.021712	    0.024920	    0.021548	    0.002469	    0.024016
     5.850	0	0	    0	    0.012080	    0.016737	    0.028818	   -0.011544	    0.059552	    0.048009	   -0.038299	    0.044037	    0.005738	    0.011746	    0.030455	    0.042200	   -0.057210	    0.050575	   -0.006635	   -0.003487	    0.050743	    0.047256	    0.083789	    0.057566	    0.141354	   -0.052112	   -0.083685	   -0.135797	    0.025039	   -0.008098	    0.016940	   -0.017115	    0.075686	    0.058570	   -0.079152	   -0.005661	   -0.084813	   -0.095421	    0.007350	   -0.088071	   -0.017285	    0.085141	    0.067856	    0.055215	    0.030027	    0.085242	   -0.017867	    0.037787	    0.019921	    0.011924	   -0.067522	   -0.055598	    0.021047	    0.012982	    0.034028	    0.009831	    0.023182	    0.033012	    0.040339	    0.054003	    0.094342	   -0.023997	    0.043592	    0.019595	   -0.003725	    0.037405	    0.033679	    0.023793	   -0.000179	    0.023614
     5.925	0	0	    0	    0.013170	    0.014792	    0.027963	   -0.004514	    0.061306	    0.056792	   -0.034214	    0.045319	    0.011105	    0.012380	    0.028876	    0.041256	   -0.054145	    0.051924	   -0.002222	   -0.000187	    0.049983	    0.049796	    0.080369	    0.052516	    0.132886	   -0.048471	   -0.084553	   -0.133024	    0.028433	   -0.013198	    0.015234	   -0.017317	    0.064527	    0.047209	   -0.073121	   -0.005748	   -0.078869	   -0.088701	    0.010881	   -0.077820	   -0.014013	    0.075630	    0.061617	    0.058967	    0.025420	    0.084388	   -0.015426	    0.028339	    0.012913	    0.008126	   -0.071545	   -0.063419	    0.025776	    0.014022	    0.039798	    0.014788	    0.027702	    0.042490	    0.044935	    0.058952	    0.103887	   -0.015862	    0.049079	    0.033217	   -0.001255	    0.030611	    0.029356	    0.022008	   -0.001587	    0.020421
     6.000	0	0	    0	    0.015056	    0.014679	    0.029735	   -0.002165	    0.062745	    0.060580	   -0.033684	    0.046982	    0.013298	    0.012009	    0.028771	    0.040781	   -0.050458	    0.054486	    0.004028	   -0.001414	    0.051799	    0.050385	    0.073963	    0.050592	    0.124555	   -0.045280	   -0.082488	   -0.127768	    0.029085	   -0.013676	    0.015409	   -0.017752	    0.062908	    0.045156	   -0.074354	   -0.002190	   -0.076544	   -0.081305	    0.013940	   -0.067365	   -0.010654	    0.073557	    0.062903	    0.053077	    0.030883	    0.083959	   -0.010371	    0.021415	    0.011044	    0.006458	   -0.075494	   -0.069036	    0.026421	    0.018003	    0.044423	    0.014953	    0.028705	    0.043658	    0.046223	    0.058773	    0.104996	   -0.013316	    0.055645	    0.042328	   -0.000400	    0.032339	    0.031939	    0.022009	   -0.004217	    0.017792
     6.075	0	0	    0	    0.019897	    0.016395	    0.036292	   -0.002030	    0.065451	    0.063421	   -0.025342	    0.040474	    0.015132	    0.019612	    0.032736	    0.052347	   -0.070165	    0.060879	   -0.009285	   -0.011997	    0.057526	    0.045528	    0.097820	    0.053120	    0.150940	   -0.047945	   -0.078824	   -0.126769	    0.014989	   -0.020787	   -0.005798	   -0.127318	    0.045516	   -0.081802	   -0.151234	   -0.036734	   -0.187967	   -0.125659	    0.029915	   -0.095744	   -0.089204	    0.060980	   -0.028224	    0.042517	    0.010540	    0.053057	   -0.012219	    0.023331	    0.011112	    0.005266	   -0.078170	   -0.072904	    0.017577	    0.010784	    0.028361	    0.100950	    0.058316	    0.159266	    0.213897	    0.111652	    0.325550	    0.010179	    0.061004	    0.071183	   -0.024459	    0.017102	   -0.007357	    0.013452	   -0.002669	    0.010782
     6.150	0	0	    0	    0.069762	    0.042059	    0.111821	   -0.031997	    0.070040	    0.038042	   -0.043462	    0.086031	    0.042568	    0.023659	    0.100336	    0.123995	   -0.172753	    0.073964	   -0.098789	   -0.194225	    0.121313	   -0.072912	    0.137977	    0.079028	    0.217006	   -0.058898	   -0.084474	   -0.143372	    0.041108	   -0.035458	    0.005650	   -0.211603	   -0.045952	   -0.257555	   -0.157473	   -0.071654	   -0.229126	   -0.251723	   -0.053767	   -0.305490	   -0.164293	    0.044200	   -0.120094	    0.047636	   -0.007532	    0.040104	   -0.008850	    0.031608	    0.022758	    0.006769	   -0.075993	   -0.069224	    0.020068	   -0.000029	    0.020039	    0.123321	    0.112869	    0.236190	    0.290402	    0.242929	    0.533331	    0.020514	    0.104165	    0.124680	   -0.046957	    0.007001	   -0.039956	    0.022012	   -0.002716	    0.019295
     6.225	0	0	    0	    0.086061	    0.081802	    0.167863	   -0.044854	    0.071191	    0.026338	   -0.077672	    0.133901	    0.056228	    0.008233	    0.196994	    0.205226	   -0.319825	   -0.018354	   -0.338178	   -0.265935	    0.023734	   -0.242201	    0.150394	    0.111502	    0.261895	   -0.058778	   -0.082788	   -0.141566	    0.049281	   -0.026431	    0.022850	   -0.225334	   -0.077528	   -0.302861	   -0.157183	   -0.056981	   -0.214164	   -0.286542	   -0.071503	   -0.358045	   -0.229460	   -0.046736	   -0.276196	    0.050232	   -0.002300	    0.047932	   -0.010709	    0.045362	    0.034653	    0.016684	   -0.067329	   -0.050645	    0.021097	   -0.004604	    0.016493	    0.118464	    0.139616	    0.258079	    0.269322	    0.288051	    0.557373	    0.018248	    0.118600	    0.136848	   -0.053856	   -0.009417	   -0.063273	    0.025580	    0.004542	    0.030122
     6.300	0	0	    0	    0.077491	    0.090534	    0.168025	   -0.040473	    0.064316	    0.023843	   -0.030725	    0.115506	    0.084780	    0.015533	    0.204415	    0.219948	   -0.282655	   -0.063687	   -0.346342	   -0.133331	   -0.003914	   -0.137245	    0.140047	    0.107421	    0.247468	   -0.057326	   -0.079566	   -0.136892	    0.040519	   -0.021435	    0.019084	   -0.153358	   -0.086267	   -0.239626	   -0.115218	   -0.045415	   -0.160633	   -0.281403	   -0.085322	   -0.366724	   -0.190281	   -0.070807	   -0.261089	    0.050040	   -0.006980	    0.043061	    0.015472	    0.040326	    0.055797	    0.028636	   -0.063997	   -0.035361	    0.019478	   -0.003951	    0.015527	    0.043257	    0.127507	    0.170763	    0.127260	    0.266373	    0.393633	   -0.007636	    0.120821	    0.113185	   -0.061280	   -0.012171	   -0.073451	    0.053592	    0.013641	    0.067233
     6.375	0	0	    0	    0.019565	    0.056711	    0.076276	   -0.046569	    0.048325	    0.001756	   -0.048247	    0.060435	    0.012188	    0.018640	    0.148837	    0.167477	   -0.096872	    0.028692	   -0.068180	   -0.041616	    0.045862	    0.004245	    0.105649	    0.083525	    0.189174	   -0.044105	   -0.072491	   -0.116595	    0.034438	   -0.030692	    0.003746	    0.006699	    0.018618	    0.025316	   -0.085012	   -0.014261	   -0.099273	   -0.168713	   -0.083328	   -0.252041	   -0.130395	   -0.013388	   -0.143782	    0.063316	    0.003679	    0.066995	    0.021761	    0.073798	    0.095560	    0.057125	   -0.043342	    0.013783	    0.003920	    0.004696	    0.008616	   -0.003445	    0.047011	    0.043566	    0.002777	    0.098671	    0.101448	   -0.050686	    0.087951	    0.037265	   -0.046748	   -0.016597	   -0.063345	    0.081442	    0.036660	    0.118102
     6.450	0	0	    0	    0.020845	    0.025027	    0.045871	   -0.034840	    0.043276	    0.008436	   -0.043697	    0.041357	   -0.002340	    0.015778	    0.052403	    0.068182	   -0.065592	    0.031306	   -0.034286	   -0.009475	    0.029044	    0.019569	    0.106929	    0.070893	    0.177822	   -0.025707	   -0.032251	   -0.057958	    0.050887	    0.003502	    0.054389	    0.022958	    0.090262	    0.113220	   -0.068669	    0.009976	   -0.058693	   -0.109496	   -0.012345	   -0.121841	   -0.058178	    0.010149	   -0.048029	    0.082102	    0.023703	    0.105806	    0.028901	    0.102749	    0.131650	    0.075986	   -0.015629	    0.060357	    0.015853	    0.002071	    0.017923	   -0.000782	    0.017721	    0.016938	    0.003106	    0.029501	    0.032607	   -0.034497	    0.052313	    0.017816	   -0.019932	    0.004914	   -0.015018	    0.083428	    0.058624	    0.142051
     6.525	0	0	    0	    0.020471	    0.024323	    0.044795	   -0.017990	    0.042084	    0.024095	   -0.024132	    0.040700	    0.016567	    0.022710	    0.036030	    0.058740	   -0.055096	    0.038720	   -0.016376	   -0.005729	    0.038351	    0.032622	    0.118191	    0.065845	    0.184036	   -0.033389	   -0.008986	   -0.042375	    0.036628	    0.006782	    0.043410	   -0.026745	    0.094143	    0.067398	   -0.113617	   -0.004938	   -0.118555	   -0.103475	    0.012940	   -0.090535	   -0.081344	    0.047589	   -0.033755	    0.067512	    0.028365	    0.095878	    0.018444	    0.100575	    0.119020	    0.073162	   -0.015225	    0.057937	    0.026854	    0.008764	    0.035618	    0.061773	    0.022548	    0.084321	    0.115978	    0.048881	    0.164859	   -0.008906	    0.050171	    0.041265	   -0.026337	    0.018940	   -0.007397	    0.075373	    0.051746	    0.127119
     6.600	0	0	    0	    0.035929	    0.025095	    0.061024	   -0.010028	    0.058264	    0.048236	   -0.007202	    0.065587	    0.058385	    0.030369	    0.047184	    0.077553	   -0.089065	    0.043477	   -0.045588	   -0.007589	    0.062806	    0.055218	    0.125374	    0.078697	    0.204070	   -0.045603	   -0.013543	   -0.059146	    0.041340	   -0.016790	    0.024551	   -0.047462	    0.031566	   -0.015895	   -0.091750	   -0.050131	   -0.141881	   -0.186279	   -0.008414	   -0.194693	   -0.073674	    0.000095	   -0.073579	    0.064151	    0.011310	    0.075460	    0.010009	    0.093068	    0.103078	    0.067327	   -0.016138	    0.051189	    0.039330	    0.011057	    0.050388	    0.066864	    0.080638	    0.147502	    0.134937	    0.164415	    0.299351	    0.009353	    0.083014	    0.092368	   -0.027394	    0.005032	   -0.022362	    0.068121	    0.043201	    0.111322
     6.675	0	0	    0	    0.024748	    0.031571	    0.056319	   -0.015031	    0.054116	    0.039085	   -0.013259	    0.063496	    0.050237	    0.015553	    0.065920	    0.081474	   -0.080553	    0.049717	   -0.030836	   -0.010042	    0.054868	    0.044826	    0.122424	    0.070692	    0.193116	   -0.044912	   -0.021175	   -0.066086	    0.037029	   -0.013468	    0.023560	   -0.010732	    0.051299	    0.040567	   -0.083909	   -0.020866	   -0.104775	   -0.154687	   -0.056878	   -0.211565	   -0.079289	    0.027978	   -0.051312	    0.066462	    0.011557	    0.078019	    0.029238	    0.096539	    0.125778	    0.070141	   -0.025450	    0.044690	    0.036928	    0.013946	    0.050874	    0.041251	    0.057858	    0.099109	    0.080165	    0.122704	    0.202868	    0.006132	    0.081113	    0.087244	   -0.021481	    0.004858	   -0.016623	    0.087940	    0.040778	    0.128718
     6.750	0	0	    0	    0.021946	    0.024483	    0.046429	   -0.016192	    0.050257	    0.034065	   -0.019915	    0.056327	    0.036412	    0.024862	    0.050253	    0.075115	   -0.066029	    0.039072	   -0.026957	   -0.011058	    0.045112	    0.034054	    0.114433	    0.075579	    0.190012	   -0.023981	   -0.016802	   -0.040782	    0.048719	   -0.010699	    0.038020	   -0.007854	    0.063156	    0.055301	   -0.084574	   -0.012316	   -0.096889	   -0.126468	   -0.027019	   -0.153487	   -0.082302	    0.021133	   -0.061169	    0.082222	    0.031511	    0.113733	   -0.009120	    0.116993	    0.107873	    0.063354	   -0.004779	    0.058575	    0.033892	    0.012396	    0.046288	    0.040686	    0.049805	    0.090491	    0.077472	    0.096827	    0.174300	    0.010757	    0.075824	    0.086581	   -0.026511	    0.009310	   -0.017201	    0.051803	    0.062510	    0.114313
     6.825	0	0	    0	    0.015834	    0.021656	    0.037490	   -0.026689	    0.052627	    0.025938	   -0.031285	    0.055362	    0.024077	    0.025100	    0.049493	    0.074592	   -0.064607	    0.040719	   -0.023887	   -0.013334	    0.042620	    0.029287	    0.102778	    0.068686	    0.171465	   -0.065557	   -0.052833	   -0.118389	    0.035138	   -0.006330	    0.028808	    0.006323	    0.061566	    0.067889	   -0.075704	   -0.005397	   -0.081101	   -0.122892	   -0.017785	   -0.140677	   -0.083315	    0.017015	   -0.066300	    0.075770	    0.034285	    0.110055	   -0.012688	    0.051531	    0.038843	    0.000466	   -0.056145	   -0.055679	    0.036800	    0.025658	    0.062458	    0.023338	    0.047282	    0.070621	    0.047672	    0.093137	    0.140809	    0.001333	    0.085730	    0.087063	   -0.025489	    0.013413	   -0.012076	    0.032900	    0.026778	    0.059678
     6.900	0	0	    0	    0.006897	    0.017023	    0.023920	   -0.037901	    0.040978	    0.003078	   -0.033816	    0.041620	    0.007804	    0.025374	    0.044014	    0.069389	   -0.057677	    0.041100	   -0.016577	   -0.011378	    0.039363	    0.027985	    0.091040	    0.062817	    0.153857	   -0.055313	   -0.065488	   -0.120801	    0.033535	   -0.001231	    0.032304	    0.025337	    0.083804	    0.109141	   -0.067313	    0.006367	   -0.060946	   -0.098747	   -0.005669	   -0.104417	   -0.070062	    0.022579	   -0.047483	    0.044685	    0.027925	    0.072610	   -0.015870	    0.042128	    0.026258	    0.014549	   -0.075430	   -0.060881	    0.031490	    0.029180	    0.060670	    0.005642	    0.029458	    0.035101	    0.031913	    0.060093	    0.092007	   -0.019335	    0.080821	    0.061486	   -0.025831	    0.014317	   -0.011514	    0.031724	    0.012041	    0.043765
     6.975	0	0	    0	    0.002842	    0.011537	    0.014378	   -0.038397	    0.039605	    0.001208	   -0.032133	    0.045880	    0.013747	    0.023934	    0.040057	    0.063991	   -0.056030	    0.041553	   -0.014477	   -0.015142	    0.037470	    0.022328	    0.082785	    0.056584	    0.139369	   -0.056035	   -0.067325	   -0.123360	    0.023212	   -0.009144	    0.014068	    0.015115	    0.086932	    0.102047	   -0.072575	    0.003315	   -0.069260	   -0.097266	    0.010708	   -0.086559	   -0.074094	    0.030913	   -0.043181	    0.031857	    0.012088	    0.043944	   -0.019961	    0.043294	    0.023333	    0.013550	   -0.068369	   -0.054819	    0.030926	    0.030454	    0.061380	    0.002821	    0.025164	    0.027985	    0.036845	    0.061477	    0.098323	   -0.018717	    0.068347	    0.049630	   -0.028575	    0.013996	   -0.014580	    0.026058	    0.003278	    0.029336
     7.050	0	0	    0	    0.002908	    0.007373	    0.010281	   -0.043359	    0.040390	   -0.002970	   -0.034938	    0.046403	    0.011465	    0.022218	    0.040251	    0.062469	   -0.059466	    0.042790	   -0.016677	   -0.018699	    0.036825	    0.018127	    0.093424	    0.060806	    0.154230	   -0.040578	   -0.068316	   -0.108894	    0.030463	   -0.009642	    0.020821	    0.002716	    0.081951	    0.084667	   -0.078542	    0.000097	   -0.078445	   -0.102980	    0.008481	   -0.094499	   -0.082484	    0.027255	   -0.055229	    0.046997	    0.013837	    0.060834	    0.025522	    0.061541	    0.087063	    0.053438	   -0.067790	   -0.014353	    0.019615	    0.027634	    0.047248	    0.004984	    0.021428	    0.026413	    0.046027	    0.061111	    0.107138	   -0.022968	    0.069222	    0.046254	   -0.036307	    0.012136	   -0.024170	    0.081009	    0.028972	    0.109980
     7.125	0	0	    0	    0.004260	    0.014039	    0.018299	   -0.044547	    0.037381	   -0.007166	   -0.032084	    0.043614	    0.011530	    0.021661	    0.041929	    0.063590	   -0.061531	    0.040160	   -0.021371	   -0.024750	    0.035552	    0.010802	    0.093913	    0.070436	    0.164349	   -0.022537	   -0.028155	   -0.050692	    0.031922	    0.003341	    0.035262	   -0.013416	    0.070510	    0.057094	   -0.077162	   -0.002842	   -0.080003	   -0.107740	    0.001904	   -0.105836	   -0.095885	    0.017769	   -0.078116	    0.053327	    0.028304	    0.081631	   -0.023412	    0.114209	    0.090796	    0.063426	   -0.011771	    0.051655	    0.013248	    0.017770	    0.031018	    0.007932	    0.029321	    0.037253	    0.049069	    0.073239	    0.122308	   -0.020467	    0.069672	    0.049205	   -0.046480	    0.004320	   -0.042161	    0.036061	    0.066432	    0.102493
     7.200	0	0	    0	    0.006288	    0.014004	    0.020292	   -0.033604	    0.035146	    0.001542	   -0.028135	    0.045586	    0.017451	    0.021830	    0.041883	    0.063713	   -0.062368	    0.040561	   -0.021808	   -0.020725	    0.035226	    0.014502	    0.090880	    0.061730	    0.152610	   -0.058725	   -0.040872	   -0.099598	    0.019282	   -0.012151	    0.007131	    0.002890	    0.059155	    0.062044	   -0.068829	   -0.000679	   -0.069507	   -0.108269	   -0.001854	   -0.110123	   -0.089758	    0.008107	   -0.081651	    0.044151	    0.012641	    0.056791	   -0.009112	    0.039447	    0.030335	    0.026850	   -0.048558	   -0.021708	    0.018614	    0.015637	    0.034251	    0.014383	    0.030618	    0.045002	    0.050059	    0.076574	    0.126633	   -0.020034	    0.071668	    0.051633	   -0.038549	    0.001179	   -0.037370	    0.032598	    0.017714	    0.050312
     7.275	0	0	    0	    0.011727	    0.012789	    0.024516	   -0.014407	    0.040436	    0.026028	   -0.021531	    0.049743	    0.028211	    0.022104	    0.038728	    0.060831	   -0.054301	    0.039504	   -0.014797	   -0.001429	    0.034918	    0.033489	    0.087245	    0.060974	    0.148219	   -0.050890	   -0.058979	   -0.109869	    0.032072	   -0.010911	    0.021161	    0.037323	    0.074288	    0.111611	   -0.061308	    0.004404	   -0.056904	   -0.092059	    0.002250	   -0.089809	   -0.040044	    0.012364	   -0.027680	    0.051266	    0.010347	    0.061613	   -0.015995	    0.045919	    0.029925	    0.026936	   -0.056808	   -0.029872	    0.037372	    0.022611	    0.059982	    0.014022	    0.030223	    0.044246	    0.035108	    0.066669	    0.101777	   -0.010867	    0.072544	    0.061678	   -0.009835	    0.005622	   -0.004213	    0.026444	    0.010274	    0.036719
     7.350	0	0	    0	    0.009103	    0.013486	    0.022589	   -0.009004	    0.044611	    0.035608	   -0.018581	    0.047758	    0.029177	    0.019654	    0.031747	    0.051401	   -0.038716	    0.045446	    0.006731	    0.006230	    0.037384	    0.043614	    0.092246	    0.053267	    0.145514	   -0.047008	   -0.056745	   -0.103753	    0.030466	   -0.007697	    0.022769	    0.033445	    0.083900	    0.117346	   -0.062126	    0.004456	   -0.057670	   -0.074683	    0.017257	   -0.057427	   -0.028314	    0.053859	    0.025544	    0.055048	    0.015767	    0.070815	    0.016619	    0.043585	    0.060204	    0.034249	   -0.066326	   -0.032077	    0.038002	    0.028640	    0.066642	    0.018124	    0.023886	    0.042010	    0.041367	    0.051942	    0.093309	   -0.001181	    0.061948	    0.060766	   -0.004187	    0.025594	    0.021408	    0.060891	    0.012499	    0.073390
     7.425	0	0	    0	    0.011850	    0.011571	    0.023421	   -0.009856	    0.044879	    0.035024	   -0.017075	    0.045512	    0.028437	    0.021364	    0.032506	    0.053870	   -0.037163	    0.044204	    0.007041	    0.003066	    0.037696	    0.040762	    0.087351	    0.063930	    0.151281	   -0.034244	   -0.046550	   -0.080795	    0.040959	   -0.002000	    0.038959	    0.031908	    0.075689	    0.107596	   -0.060736	    0.002878	   -0.057858	   -0.074048	    0.014754	   -0.059294	   -0.033401	    0.042600	    0.009199	    0.060819	    0.026377	    0.087197	   -0.013329	    0.075591	    0.062263	    0.056266	   -0.033628	    0.022639	    0.038284	    0.022175	    0.060459	    0.013804	    0.026512	    0.040316	    0.035764	    0.056161	    0.091925	    0.006588	    0.063188	    0.069776	   -0.007426	    0.015354	    0.007927	    0.032529	    0.045307	    0.077836
     7.500	0	0	    0	    0.008687	    0.010043	    0.018730	   -0.004813	    0.042930	    0.038117	   -0.014817	    0.045266	    0.030448	    0.019347	    0.032558	    0.051905	   -0.033433	    0.043449	    0.010016	    0.008187	    0.037200	    0.045387	    0.084664	    0.052508	    0.137172	   -0.046526	   -0.054882	   -0.101408	    0.033634	   -0.002154	    0.031480	    0.040642	    0.078043	    0.118686	   -0.056991	    0.002486	   -0.054505	   -0.071764	    0.015689	   -0.056075	   -0.016253	    0.043298	    0.027045	    0.050302	    0.020080	    0.070382	   -0.012968	    0.046648	    0.033681	    0.032649	   -0.050559	   -0.017910	    0.044984	    0.027138	    0.072122	    0.010724	    0.021511	    0.032235	    0.031506	    0.047692	    0.079198	   -0.002714	    0.060838	    0.058124	   -0.001327	    0.023313	    0.021986	    0.031253	    0.013030	    0.044283
     7.575	0	0	    0	    0.010850	    0.008362	    0.019212	   -0.003641	    0.045091	    0.041450	   -0.015007	    0.046621	    0.031613	    0.018006	    0.028680	    0.046686	   -0.027083	    0.045726	    0.018643	    0.008647	    0.039482	    0.048129	    0.074387	    0.053444	    0.127831	   -0.047854	   -0.060575	   -0.108430	    0.031495	   -0.003432	    0.028063	    0.027569	    0.085029	    0.112597	   -0.068449	    0.006330	   -0.062119	   -0.064844	    0.019069	   -0.045775	   -0.016669	    0.058760	    0.042091	    0.046619	    0.014724	    0.061343	    0.000239	    0.039287	    0.039526	    0.029275	   -0.057167	   -0.027892	    0.041794	    0.030934	    0.072728	    0.016995	    0.014297	    0.031292	    0.049757	    0.038634	    0.088391	    0.001737	    0.052214	    0.053951	    0.000093	    0.028088	    0.028181	    0.039422	    0.000619	    0.040040
     7.650	0	0	    0	    0.013985	    0.010935	    0.024920	    0.002258	    0.042458	    0.044716	   -0.008460	    0.042069	    0.033609	    0.022824	    0.035510	    0.058333	   -0.044785	    0.048130	    0.003345	    0.000837	    0.043705	    0.044542	    0.116917	    0.059574	    0.176490	   -0.029923	   -0.053158	   -0.083080	    0.032228	   -0.012666	    0.019561	   -0.042961	    0.053631	    0.010670	   -0.111761	   -0.015761	   -0.127521	   -0.110318	    0.023896	   -0.086423	   -0.081005	    0.031220	   -0.049786	    0.067394	    0.010287	    0.077681	    0.044343	    0.083299	    0.127642	    0.079308	   -0.044417	    0.034891	    0.028272	    0.019075	    0.047346	    0.092215	    0.038908	    0.131123	    0.171421	    0.091332	    0.262753	    0.027699	    0.062718	    0.090417	   -0.026271	    0.010827	   -0.015444	    0.093790	    0.046919	    0.140708
     7.725	0	0	    0	    0.032962	    0.021923	    0.054885	   -0.004341	    0.049623	    0.045282	   -0.001884	    0.060778	    0.058894	    0.025589	    0.054568	    0.080156	   -0.090275	    0.060655	   -0.029620	   -0.012499	    0.093692	    0.081193	    0.118630	    0.084486	    0.203115	   -0.018408	   -0.012996	   -0.031404	    0.037274	   -0.023881	    0.013394	   -0.056808	   -0.009517	   -0.066325	   -0.073988	   -0.041044	   -0.115032	   -0.198299	   -0.057465	   -0.255764	   -0.080268	    0.018750	   -0.061518	    0.060351	    0.009160	    0.069512	   -0.010691	    0.120555	    0.109864	    0.068426	    0.003065	    0.071492	    0.034432	    0.012570	    0.047002	    0.064493	    0.086443	    0.150937	    0.134348	    0.178930	    0.313278	    0.029336	    0.097608	    0.126944	   -0.037046	   -0.005370	   -0.042415	    0.048740	    0.071428	    0.120167
     7.800	0	0	    0	    0.013574	    0.026503	    0.040077	   -0.026200	    0.039514	    0.013314	   -0.020256	    0.049453	    0.029197	    0.020408	    0.056739	    0.077148	   -0.060049	    0.042167	   -0.017882	   -0.026937	    0.071238	    0.044301	    0.084569	    0.072834	    0.157403	   -0.065582	   -0.034623	   -0.100205	    0.025063	   -0.023007	    0.002056	    0.010222	    0.030953	    0.041175	   -0.064940	   -0.009646	   -0.074585	   -0.129481	   -0.074688	   -0.204169	   -0.086758	    0.022992	   -0.063766	    0.041947	   -0.000478	    0.041469	   -0.009226	    0.045344	    0.036118	    0.030435	   -0.042257	   -0.011822	    0.028450	    0.019863	    0.048313	    0.006681	    0.038200	    0.044881	    0.031368	    0.094807	    0.126175	    0.000974	    0.089869	    0.090843	   -0.035407	   -0.006807	   -0.042214	    0.031658	    0.018006	    0.049664
     7.875	0	0	    0	    0.001208	    0.010373	    0.011581	   -0.026709	    0.031868	    0.005159	   -0.019747	    0.040752	    0.021005	    0.025219	    0.041714	    0.066932	   -0.048198	    0.033735	   -0.014462	   -0.015843	    0.033498	    0.017654	    0.078765	    0.053067	    0.131832	   -0.055871	   -0.060517	   -0.116389	    0.019513	   -0.008457	    0.011056	    0.008041	    0.063278	    0.071319	   -0.062753	    0.002763	   -0.059991	   -0.085071	   -0.002149	   -0.087220	   -0.060918	    0.012352	   -0.048567	    0.038187	    0.009119	    0.047306	   -0.014890	    0.045931	    0.031041	    0.029684	   -0.051310	   -0.021626	    0.028427	    0.026873	    0.055301	    0.001579	    0.021084	    0.022664	    0.028490	    0.051819	    0.080309	   -0.015126	    0.061491	    0.046365	   -0.029296	    0.008268	   -0.021028	    0.027795	    0.012260	    0.040055
     7.950	0	0	    0	   -0.000437	    0.009725	    0.009288	   -0.026429	    0.032371	    0.005942	   -0.019633	    0.041956	    0.022323	    0.024195	    0.036000	    0.060196	   -0.046581	    0.035734	   -0.010847	   -0.019232	    0.033397	    0.014165	    0.078826	    0.045271	    0.124096	   -0.059045	   -0.058158	   -0.117203	    0.013995	   -0.010399	    0.003595	    0.004046	    0.058721	    0.062767	   -0.070145	   -0.002109	   -0.072253	   -0.087339	    0.011435	   -0.075904	   -0.067200	    0.020112	   -0.047088	    0.034129	    0.002131	    0.036260	   -0.017587	    0.046558	    0.028971	    0.025650	   -0.054285	   -0.028635	    0.023485	    0.025103	    0.048587	    0.002344	    0.022173	    0.024517	    0.036765	    0.057862	    0.094627	   -0.014152	    0.057439	    0.043288	   -0.032220	    0.008545	   -0.023676	    0.023960	    0.008836	    0.032796
     8.025	0	0	    0	   -0.002860	    0.004569	    0.001709	   -0.015698	    0.032296	    0.016598	   -0.017789	    0.042788	    0.024998	    0.022400	    0.035877	    0.058277	   -0.048349	    0.036171	   -0.012177	   -0.014367	    0.032492	    0.018126	    0.076588	    0.049978	    0.126566	   -0.060887	   -0.064013	   -0.124900	    0.016678	   -0.016989	   -0.000311	    0.010368	    0.055710	    0.066078	   -0.064464	   -0.005155	   -0.069619	   -0.092264	    0.005158	   -0.087106	   -0.059706	    0.014670	   -0.045036	    0.038590	    0.003272	    0.041862	   -0.014335	    0.047412	    0.033077	    0.021664	   -0.061995	   -0.040331	    0.026594	    0.018763	    0.045356	    0.012983	    0.022355	    0.035338	    0.046470	    0.062239	    0.108709	   -0.009425	    0.054124	    0.044699	   -0.027825	    0.002626	   -0.025199	    0.022629	    0.007193	    0.029822
     8.100	0	0	    0	    0.003884	    0.003535	    0.007419	   -0.003430	    0.038856	    0.035426	   -0.013340	    0.044785	    0.031445	    0.024044	    0.035251	    0.059294	   -0.039949	    0.035072	   -0.004877	   -0.001622	    0.036022	    0.034400	    0.088218	    0.051523	    0.139741	   -0.049641	   -0.067533	   -0.117174	    0.027771	   -0.014360	    0.013412	    0.027153	    0.058664	    0.085817	   -0.059292	   -0.001687	   -0.060980	   -0.080855	    0.002950	   -0.077905	   -0.043606	    0.024240	   -0.019365	    0.056642	    0.006124	    0.062766	    0.019915	    0.042786	    0.062701	    0.034951	   -0.071048	   -0.036098	    0.037664	    0.022485	    0.060149	    0.020292	    0.025978	    0.046270	    0.051039	    0.061549	    0.112588	    0.008063	    0.060001	    0.068064	   -0.013281	    0.010833	   -0.002448	    0.059578	    0.010387	    0.069965
     8.175	0	0	    0	    0.011847	    0.009643	    0.021491	   -0.001999	    0.037366	    0.035367	   -0.010103	    0.041594	    0.031490	    0.026897	    0.034856	    0.061753	   -0.034229	    0.035588	    0.001359	    0.000257	    0.036710	    0.036966	    0.095424	    0.057915	    0.153339	   -0.029189	   -0.051403	   -0.080591	    0.039170	   -0.006712	    0.032458	    0.024716	    0.060395	    0.085111	   -0.059089	   -0.000972	   -0.060061	   -0.074618	    0.006343	   -0.068275	   -0.042795	    0.022745	   -0.020050	    0.063975	    0.018947	    0.082922	    0.011885	    0.086236	    0.098121	    0.064717	   -0.040219	    0.024498	    0.034462	    0.018765	    0.053227	    0.025218	    0.026445	    0.051663	    0.052704	    0.060366	    0.113070	    0.012117	    0.061758	    0.073874	   -0.011435	    0.009061	   -0.002373	    0.065950	    0.046082	    0.112031
     8.250	0	0	    0	    0.014168	    0.013969	    0.028137	   -0.002517	    0.038513	    0.035996	   -0.008396	    0.042396	    0.034000	    0.026873	    0.036437	    0.063311	   -0.033058	    0.036236	    0.003178	   -0.002616	    0.037632	    0.035016	    0.081112	    0.067602	    0.148713	   -0.040816	   -0.021957	   -0.062773	    0.033870	   -0.005422	    0.028448	    0.021409	    0.059056	    0.080466	   -0.057208	   -0.001239	   -0.058447	   -0.074154	    0.008417	   -0.065737	   -0.046987	    0.018794	   -0.028193	    0.055328	    0.023814	    0.079142	   -0.009651	    0.085373	    0.075722	    0.054568	   -0.030724	    0.023845	    0.031679	    0.013908	    0.045586	    0.025258	    0.029665	    0.054923	    0.055647	    0.064215	    0.119862	    0.011856	    0.062847	    0.074703	   -0.013357	    0.009753	   -0.003604	    0.045528	    0.036655	    0.082184
     8.325	0	0	    0	    0.011024	    0.013676	    0.024699	   -0.000373	    0.038320	    0.037947	   -0.005689	    0.041851	    0.036161	    0.026979	    0.034832	    0.061811	   -0.030818	    0.036059	    0.005241	   -0.000534	    0.035098	    0.034565	    0.079885	    0.054571	    0.134456	   -0.046943	   -0.025111	   -0.072054	    0.029707	   -0.006238	    0.023469	    0.029388	    0.053668	    0.083056	   -0.055410	    0.000168	   -0.055242	   -0.070898	    0.007121	   -0.063777	   -0.040057	    0.015696	   -0.024361	    0.055188	    0.014812	    0.070000	   -0.001558	    0.049648	    0.048090	    0.033994	   -0.040752	   -0.006758	    0.036960	    0.015072	    0.052032	    0.021053	    0.028453	    0.049507	    0.051843	    0.066174	    0.118017	    0.008934	    0.063514	    0.072447	   -0.010585	    0.010828	    0.000243	    0.029849	    0.014065	    0.043914
     8.400	0	0	    0	    0.007850	    0.010175	    0.018025	   -0.001591	    0.037967	    0.036376	   -0.007981	    0.041680	    0.033699	    0.024654	    0.031961	    0.056614	   -0.024619	    0.038271	    0.013652	    0.000945	    0.034435	    0.035380	    0.068089	    0.052895	    0.120985	   -0.040865	   -0.048651	   -0.089516	    0.029395	   -0.006374	    0.023021	    0.030696	    0.064826	    0.095521	   -0.057342	   -0.000118	   -0.057460	   -0.064785	    0.012412	   -0.052372	   -0.010294	    0.028593	    0.018299	    0.047881	    0.017617	    0.065498	    0.005252	    0.045755	    0.051008	    0.031358	   -0.057946	   -0.026589	    0.038108	    0.021599	    0.059707	    0.012082	    0.022388	    0.034469	    0.037827	    0.055338	    0.093165	    0.003193	    0.058985	    0.062178	   -0.002917	    0.017534	    0.014617	    0.037803	    0.003457	    0.041261
     8.475	0	0	    0	    0.007922	    0.006706	    0.014628	   -0.004588	    0.036058	    0.031470	   -0.010589	    0.037006	    0.026417	    0.025877	    0.029396	    0.055273	   -0.023530	    0.038859	    0.015329	   -0.001003	    0.032946	    0.031944	    0.080591	    0.055399	    0.135989	   -0.033027	   -0.046757	   -0.079784	    0.033239	   -0.006432	    0.026807	    0.020434	    0.059549	    0.079983	   -0.066216	   -0.004547	   -0.070763	   -0.063515	    0.015694	   -0.047821	   -0.029998	    0.040259	    0.010261	    0.060066	    0.018708	    0.078774	    0.031226	    0.078540	    0.109766	    0.070730	   -0.047891	    0.022839	    0.024779	    0.018129	    0.042908	    0.010363	    0.019320	    0.029683	    0.031430	    0.052536	    0.083966	    0.003610	    0.051067	    0.054678	   -0.011388	    0.016049	    0.004660	    0.076787	    0.039087	    0.115874
     8.550	0	0	    0	    0.007071	    0.010298	    0.017369	   -0.014124	    0.035161	    0.021037	   -0.010232	    0.036743	    0.026511	    0.027011	    0.036254	    0.063265	   -0.022929	    0.032779	    0.009849	   -0.003598	    0.030727	    0.027129	    0.080080	    0.058144	    0.138224	   -0.022542	   -0.016819	   -0.039360	    0.031195	   -0.006767	    0.024428	    0.069378	    0.047205	    0.116583	   -0.034352	    0.004475	   -0.029878	   -0.057429	    0.003694	   -0.053735	   -0.003685	    0.030159	    0.026474	    0.057843	    0.023112	    0.080954	    0.016986	    0.099401	    0.116387	    0.073477	   -0.019603	    0.053874	    0.019323	    0.008204	    0.027527	   -0.031686	    0.010586	   -0.021100	   -0.023733	    0.026504	    0.002771	   -0.014122	    0.049541	    0.035419	   -0.000084	    0.010971	    0.010887	    0.065920	    0.048120	    0.114040
     8.625	0	0	    0	    0.008363	    0.010638	    0.019001	   -0.015254	    0.029811	    0.014557	   -0.015324	    0.032764	    0.017440	    0.022366	    0.031242	    0.053608	   -0.014200	    0.034577	    0.020377	   -0.009756	    0.029102	    0.019346	    0.074371	    0.056568	    0.130939	   -0.037763	   -0.012137	   -0.049901	    0.026047	    0.000429	    0.026476	    0.044856	    0.095718	    0.140574	   -0.054360	    0.029781	   -0.024579	   -0.049566	    0.031724	   -0.017842	    0.004316	    0.077605	    0.081922	    0.043912	    0.028533	    0.072445	   -0.003567	    0.093157	    0.089590	    0.062600	   -0.022422	    0.040178	    0.014232	    0.006918	    0.021150	   -0.018769	   -0.018371	   -0.037140	    0.010597	   -0.000204	    0.010394	   -0.020995	    0.023236	    0.002242	   -0.001783	    0.028388	    0.026605	    0.050497	    0.038630	    0.089127
     8.700	0	0	    0	    0.012159	    0.013306	    0.025464	   -0.008469	    0.033112	    0.024642	   -0.005607	    0.036631	    0.031024	    0.022575	    0.037034	    0.059609	   -0.030614	    0.033599	    0.002985	   -0.001771	    0.031527	    0.029757	    0.093237	    0.056768	    0.150005	   -0.057705	   -0.019320	   -0.077026	    0.005368	   -0.018252	   -0.012883	   -0.082395	    0.062025	   -0.020370	   -0.107600	   -0.017766	   -0.125367	   -0.107456	    0.029165	   -0.078291	   -0.079933	    0.033154	   -0.046779	    0.022517	    0.007346	    0.029863	   -0.004059	    0.071230	    0.067171	    0.049293	   -0.034185	    0.015107	    0.023006	   -0.002840	    0.020166	    0.081649	    0.021977	    0.103626	    0.165521	    0.075549	    0.241070	    0.013778	    0.038827	    0.052605	   -0.030262	    0.010841	   -0.019421	    0.050670	    0.021045	    0.071715
     8.775	0	0	    0	    0.045931	    0.029132	    0.075063	   -0.023976	    0.039249	    0.015273	   -0.013925	    0.062841	    0.048916	    0.032553	    0.065302	    0.097855	   -0.100656	    0.064942	   -0.035714	   -0.086250	    0.124941	    0.038692	    0.119243	    0.077672	    0.196915	   -0.061675	   -0.034197	   -0.095871	    0.024211	   -0.040077	   -0.015866	   -0.176497	   -0.030922	   -0.207418	   -0.144604	   -0.036490	   -0.181093	   -0.211001	   -0.047995	   -0.258996	   -0.128991	    0.020168	   -0.108823	    0.030156	   -0.011822	    0.018335	    0.002476	    0.078862	    0.081338	    0.052033	   -0.037647	    0.014386	    0.023931	    0.005232	    0.029163	    0.108744	    0.090604	    0.199348	    0.248916	    0.196309	    0.445224	    0.028896	    0.084156	    0.113052	   -0.051137	   -0.007667	   -0.058804	    0.066562	    0.031341	    0.097904
     8.850	0	0	    0	    0.074884	    0.062540	    0.137424	   -0.013238	    0.041905	    0.028667	   -0.022831	    0.087080	    0.064249	    0.011115	    0.133796	    0.144911	   -0.231580	    0.033627	   -0.197953	   -0.184264	    0.071912	   -0.112351	    0.141209	    0.104516	    0.245725	   -0.057225	   -0.036496	   -0.093721	    0.045572	   -0.034442	    0.011129	   -0.178754	   -0.090516	   -0.269271	   -0.124980	   -0.055806	   -0.180786	   -0.258941	   -0.087421	   -0.346362	   -0.200558	   -0.035111	   -0.235669	    0.050328	   -0.011383	    0.038945	   -0.003020	    0.088904	    0.085884	    0.061285	   -0.027703	    0.033582	    0.031958	   -0.005354	    0.026605	    0.129298	    0.114117	    0.243415	    0.266704	    0.259910	    0.526614	    0.043691	    0.102936	    0.146626	   -0.044207	   -0.018975	   -0.063181	    0.059128	    0.043682	    0.102810
     8.925	0	0	    0	    0.068419	    0.077887	    0.146306	   -0.004182	    0.042976	    0.038794	   -0.008232	    0.088071	    0.079839	    0.027327	    0.157443	    0.184769	   -0.208404	   -0.026340	   -0.234744	   -0.079239	    0.039155	   -0.040085	    0.119296	    0.104183	    0.223479	   -0.069288	   -0.041856	   -0.111145	    0.036297	   -0.027807	    0.008490	   -0.085719	   -0.096142	   -0.181861	   -0.073332	   -0.022726	   -0.096058	   -0.240433	   -0.095559	   -0.335992	   -0.147120	   -0.067122	   -0.214241	    0.035186	   -0.006161	    0.029024	    0.000556	    0.052428	    0.052984	    0.037585	   -0.033859	    0.003726	    0.044245	   -0.001016	    0.043229	    0.075469	    0.105912	    0.181380	    0.151616	    0.230524	    0.382139	    0.030731	    0.112148	    0.142879	   -0.042883	   -0.016631	   -0.059514	    0.033433	    0.024158	    0.057591
     9.000	0	0	    0	    0.035402	    0.049169	    0.084571	   -0.003316	    0.037571	    0.034255	   -0.015098	    0.045767	    0.030669	    0.022195	    0.108168	    0.130363	   -0.092792	    0.031118	   -0.061674	   -0.036505	    0.070950	    0.034446	    0.098040	    0.075779	    0.173819	   -0.064881	   -0.069730	   -0.134611	    0.028856	   -0.033238	   -0.004382	   -0.036355	    0.013141	   -0.023214	   -0.078718	   -0.013136	   -0.091853	   -0.159183	   -0.059333	   -0.218517	   -0.099756	   -0.017052	   -0.116808	    0.033305	   -0.007851	    0.025453	   -0.006276	    0.052074	    0.045798	    0.029638	   -0.049693	   -0.020055	    0.037379	    0.007782	    0.045162	    0.074923	    0.059874	    0.134796	    0.156845	    0.136425	    0.293269	    0.005774	    0.090477	    0.096251	   -0.042047	   -0.013460	   -0.055507	    0.030586	    0.009491	    0.040077
     9.075	0	0	    0	    0.039573	    0.028246	    0.067819	    0.003646	    0.046255	    0.049901	    0.010621	    0.047279	    0.057900	    0.034696	    0.075138	    0.109834	   -0.093673	    0.043042	   -0.050632	   -0.039172	    0.080001	    0.040829	    0.106216	    0.077709	    0.183925	   -0.067466	   -0.076338	   -0.143804	    0.030699	   -0.031182	   -0.000483	   -0.095208	    0.006531	   -0.088677	   -0.105112	   -0.023420	   -0.128533	   -0.180613	   -0.024925	   -0.205538	   -0.105726	   -0.016243	   -0.121969	    0.034338	   -0.010299	    0.024039	    0.011977	    0.043571	    0.055549	    0.031203	   -0.057587	   -0.026384	    0.036761	    0.006087	    0.042848	    0.119090	    0.080981	    0.200071	    0.229388	    0.178652	    0.408040	    0.016573	    0.082889	    0.099462	   -0.041959	   -0.014040	   -0.055999	    0.048407	   -0.002949	    0.045457
     9.150	0	0	    0	    0.053656	    0.042565	    0.096221	    0.001608	    0.049060	    0.050668	    0.008631	    0.084186	    0.092817	    0.034276	    0.121467	    0.155743	   -0.131593	    0.045419	   -0.086174	   -0.036933	    0.085353	    0.048420	    0.127879	    0.091845	    0.219724	   -0.041665	   -0.074339	   -0.116004	    0.057802	   -0.032183	    0.025620	   -0.094036	   -0.036203	   -0.130239	   -0.095284	   -0.043181	   -0.138465	   -0.224886	   -0.074828	   -0.299714	   -0.107117	   -0.015189	   -0.122306	    0.070755	   -0.003168	    0.067587	    0.063954	    0.102851	    0.166805	    0.095157	   -0.033890	    0.061268	    0.039587	    0.008041	    0.047628	    0.098345	    0.112170	    0.210515	    0.180375	    0.230243	    0.410618	    0.023432	    0.091559	    0.114991	   -0.039129	   -0.010309	   -0.049438	    0.110181	    0.064019	    0.174200
     9.225	0	0	    0	    0.021879	    0.044141	    0.066020	   -0.021129	    0.046728	    0.025599	   -0.022228	    0.064897	    0.042669	    0.020441	    0.122173	    0.142615	   -0.073234	    0.041138	   -0.032095	   -0.017601	    0.042581	    0.024980	    0.092464	    0.086943	    0.179407	   -0.011414	   -0.018407	   -0.029821	    0.057418	   -0.016339	    0.041079	    0.029453	    0.001282	    0.030735	   -0.057842	   -0.018154	   -0.075996	   -0.143763	   -0.082013	   -0.225777	   -0.093775	   -0.010768	   -0.104543	    0.090109	    0.015042	    0.105152	    0.038593	    0.135182	    0.173776	    0.085467	    0.009529	    0.094996	    0.018544	    0.021412	    0.039956	   -0.011510	    0.055201	    0.043691	   -0.021640	    0.105985	    0.084345	   -0.021018	    0.086289	    0.065271	   -0.032785	   -0.004313	   -0.037098	    0.083313	    0.086140	    0.169454
     9.300	0	0	    0	    0.004211	    0.017189	    0.021399	   -0.032171	    0.034717	    0.002546	   -0.024528	    0.033717	    0.009189	    0.021222	    0.049982	    0.071204	   -0.023885	    0.040812	    0.016926	   -0.010630	    0.023587	    0.012958	    0.064620	    0.071107	    0.135727	   -0.039976	    0.004547	   -0.035429	    0.049139	    0.025371	    0.074511	    0.067312	    0.105747	    0.173059	   -0.027067	    0.034389	    0.007322	   -0.053798	    0.012560	   -0.041238	    0.029344	    0.063315	    0.092659	    0.070323	    0.056115	    0.126439	   -0.018965	    0.096729	    0.077764	    0.053282	   -0.011677	    0.041605	    0.025091	    0.011547	    0.036638	   -0.050364	   -0.003575	   -0.053939	   -0.046164	    0.003163	   -0.043001	   -0.055275	    0.038028	   -0.017246	   -0.000988	    0.027750	    0.026762	    0.045833	    0.051361	    0.097194
     9.375	0	0	    0	    0.000661	    0.009547	    0.010208	   -0.023271	    0.038338	    0.015067	   -0.011957	    0.038666	    0.026709	    0.012340	    0.028971	    0.041311	   -0.011562	    0.042780	    0.031218	   -0.009879	    0.031791	    0.021912	    0.052855	    0.053729	    0.106584	   -0.065876	   -0.041080	   -0.106956	    0.036752	    0.021382	    0.058134	    0.027639	    0.096158	    0.123797	   -0.019229	    0.053990	    0.034761	   -0.059957	    0.035797	   -0.024160	    0.062054	    0.133661	    0.195715	    0.054977	    0.046020	    0.100996	   -0.016408	    0.036554	    0.020146	    0.049254	   -0.039304	    0.009950	   -0.013562	    0.007901	   -0.005660	   -0.044150	   -0.020489	   -0.064639	   -0.052351	   -0.012110	   -0.064462	   -0.070374	    0.002655	   -0.067719	    0.019429	    0.057051	    0.076481	    0.046476	    0.022138	    0.068614
     9.450	0	0	    0	    0.001543	    0.010556	    0.012099	   -0.016775	    0.044652	    0.027877	   -0.008965	    0.047738	    0.038774	    0.010770	    0.025844	    0.036615	   -0.009252	    0.050034	    0.040781	   -0.010744	    0.034805	    0.024062	    0.050984	    0.043357	    0.094340	   -0.061675	   -0.069363	   -0.131038	    0.040661	    0.020778	    0.061438	    0.009331	    0.092133	    0.101464	   -0.020385	    0.058792	    0.038408	   -0.068522	    0.037650	   -0.030873	    0.051932	    0.139837	    0.191769	    0.066448	    0.044406	    0.110854	   -0.025673	    0.035206	    0.009533	    0.045346	   -0.044147	    0.001199	   -0.023418	   -0.008057	   -0.031475	   -0.035120	   -0.013157	   -0.048277	   -0.051666	   -0.020821	   -0.072487	   -0.063681	   -0.002481	   -0.066162	   -0.011043	    0.057677	    0.046634	    0.047141	    0.029469	    0.076611
     9.525	0	0	    0	   -0.000783	    0.008894	    0.008111	   -0.012184	    0.047143	    0.034958	   -0.008872	    0.042727	    0.033855	    0.014341	    0.026003	    0.040344	   -0.013527	    0.054422	    0.040895	   -0.007240	    0.034040	    0.026800	    0.057310	    0.042341	    0.099651	   -0.065036	   -0.077767	   -0.142803	    0.026009	    0.020507	    0.046516	   -0.052647	    0.098768	    0.046121	   -0.076798	    0.064092	   -0.012706	   -0.073597	    0.031642	   -0.041956	    0.028085	    0.147266	    0.175351	    0.043122	    0.051987	    0.095109	   -0.018433	    0.034758	    0.016326	    0.035718	   -0.055137	   -0.019419	   -0.022590	   -0.015917	   -0.038506	    0.022686	   -0.014462	    0.008224	    0.035207	   -0.032795	    0.002412	   -0.051184	   -0.004709	   -0.055893	   -0.017392	    0.045237	    0.027845	    0.035619	    0.021246	    0.056865
     9.600	0	0	    0	    0.019743	    0.009132	    0.028875	   -0.015043	    0.059829	    0.044786	   -0.003641	    0.061861	    0.058220	    0.022260	    0.046365	    0.068626	   -0.033684	    0.048941	    0.015257	    0.032682	    0.062093	    0.094775	    0.100100	    0.058692	    0.158792	   -0.059552	   -0.082298	   -0.141850	    0.022455	   -0.029257	   -0.006802	   -0.182439	   -0.003394	   -0.185833	   -0.113103	   -0.017266	   -0.130369	   -0.137753	    0.006319	   -0.131434	   -0.039339	    0.059690	    0.020352	    0.034162	    0.014759	    0.048921	    0.012747	    0.044370	    0.057117	    0.050462	   -0.066118	   -0.015656	   -0.028495	   -0.013902	   -0.042397	    0.096746	    0.067180	    0.163925	    0.204089	    0.108047	    0.312136	    0.018611	    0.029306	    0.047917	   -0.044852	    0.029543	   -0.015309	    0.065085	    0.016995	    0.082080
     9.675	0	0	    0	    0.065546	    0.042728	    0.108274	   -0.011761	    0.050372	    0.038611	   -0.016259	    0.079444	    0.063185	    0.030342	    0.105003	    0.135346	   -0.118567	    0.094228	   -0.024339	   -0.036348	    0.116007	    0.079659	    0.130549	    0.077597	    0.208146	   -0.056500	   -0.071303	   -0.127803	    0.052649	   -0.022829	    0.029820	   -0.203118	   -0.091018	   -0.294137	   -0.101668	   -0.049205	   -0.150873	   -0.215673	   -0.052757	   -0.268431	   -0.109146	    0.027793	   -0.081353	    0.051186	   -0.008004	    0.043182	    0.000999	    0.069121	    0.070120	    0.061822	   -0.034522	    0.027301	   -0.032157	   -0.028693	   -0.060851	    0.099503	    0.104371	    0.203875	    0.227568	    0.218864	    0.446432	    0.041166	    0.091464	    0.132630	   -0.051606	   -0.004078	   -0.055684	    0.059703	    0.040129	    0.099832
     9.750	0	0	    0	    0.053889	    0.062189	    0.116078	    0.000870	    0.046335	    0.047204	   -0.002078	    0.076267	    0.074190	    0.026280	    0.132580	    0.158860	   -0.117056	    0.048894	   -0.068162	    0.001632	    0.084320	    0.085953	    0.105229	    0.083077	    0.188306	   -0.070622	   -0.060805	   -0.131426	    0.039676	   -0.014849	    0.024827	   -0.080806	   -0.099429	   -0.180235	   -0.062549	   -0.010857	   -0.073406	   -0.203750	   -0.074107	   -0.277857	   -0.076301	   -0.011580	   -0.087882	    0.038101	   -0.003638	    0.034463	   -0.001309	    0.049401	    0.048093	    0.034580	   -0.038475	   -0.003894	   -0.014634	   -0.024098	   -0.038732	    0.037014	    0.092804	    0.129818	    0.079355	    0.190401	    0.269756	    0.020163	    0.107162	    0.127326	   -0.047836	   -0.010058	   -0.057893	    0.037501	    0.022550	    0.060051
     9.825	0	0	    0	    0.010657	    0.028392	    0.039049	   -0.012399	    0.047184	    0.034785	   -0.011431	    0.049357	    0.037926	    0.026970	    0.080057	    0.107027	   -0.049684	    0.063677	    0.013993	   -0.005966	    0.037840	    0.031874	    0.074428	    0.058671	    0.133099	   -0.057837	   -0.080134	   -0.137970	    0.032581	   -0.012280	    0.020301	   -0.016141	    0.019593	    0.003453	   -0.052370	    0.009218	   -0.043151	   -0.077517	   -0.025435	   -0.102952	   -0.023129	    0.002142	   -0.020987	    0.044979	    0.006225	    0.051204	   -0.004246	    0.044671	    0.040425	    0.033148	   -0.059348	   -0.026200	   -0.014104	   -0.011461	   -0.025566	    0.013017	    0.035855	    0.048872	    0.010929	    0.057857	    0.068786	   -0.009128	    0.068191	    0.059063	   -0.006939	   -0.004742	   -0.011681	    0.042352	    0.010835	    0.053187
     9.900	0	0	    0	    0.002382	    0.007916	    0.010298	   -0.010451	    0.045125	    0.034673	   -0.014874	    0.046089	    0.031215	    0.027337	    0.048577	    0.075914	   -0.019320	    0.053159	    0.033839	   -0.003313	    0.039553	    0.036240	    0.071909	    0.051485	    0.123394	   -0.060084	   -0.078136	   -0.138220	    0.022186	   -0.000121	    0.022065	   -0.040501	    0.054592	    0.014091	   -0.067712	    0.018502	   -0.049210	   -0.059406	    0.027339	   -0.032068	   -0.007085	    0.071376	    0.064291	    0.039203	    0.021984	    0.061187	    0.010575	    0.043992	    0.054567	    0.034962	   -0.061172	   -0.026210	   -0.003281	   -0.005566	   -0.008847	    0.026641	    0.021855	    0.048496	    0.041281	    0.024641	    0.065921	   -0.006385	    0.043035	    0.036650	    0.003165	    0.034714	    0.037879	    0.063577	    0.019984	    0.083561
