 [File Information]      		 [Data Line]	36
Measured Date	2024/05/27 092803
ID		Version	11.0
Name	oceane_1	[HeaderType]	11.0/11.0
Comment	
[Measurement Info.]
Holder Location	       0
Block Design	Off     
Pre.Rest Time	       0
Task Time	       0
Pos.Rest Time	       0
Loop	       0
Averaging	       1
Total Points	     819
[.INF File]
Filename	Cognitive1.INF
[Condition-1]
HV Switching	OFF
 R1 ,R2 ,R3 ,R4 ,R5 ,R6 ,R7 ,R8 
 120.00, 70.00,120.00,100.00, 90.00, 70.00,120.00,120.00
 Gain(X1,X4,X16,X64)
 R1 ,R2 ,R3 ,R4 ,R5 ,R6 ,R7 ,R8 
 1,1,1,1,1,1,1,1
[Analysis Condition]
Smoothed Type	None            
Smoothed Points	       0
Smoothed Loop	       0
Baseline Method	None            
Baseline location	
[Text Info.]
Output Mode	Continious      	Task No.		Data Type	Hb      
Time Range	    0.00	   61.35	Averaing	1
(1,3)(5,3)(5,7)(2,7)(2,4)(6,4)(6,8)(1,1)(3,3)(5,5)(7,7)(2,2)(4,4)(6,6)(8,8)(3,1)(3,5)(7,5)(7,2)(4,2)(4,6)(8,6)
         	     	     	     	    ch- 1	    ch- 1	    ch- 1	    ch- 2	    ch- 2	    ch- 2	    ch- 3	    ch- 3	    ch- 3	    ch- 4	    ch- 4	    ch- 4	    ch- 5	    ch- 5	    ch- 5	    ch- 6	    ch- 6	    ch- 6	    ch- 7	    ch- 7	    ch- 7	    ch- 8	    ch- 8	    ch- 8	    ch- 9	    ch- 9	    ch- 9	    ch-10	    ch-10	    ch-10	    ch-11	    ch-11	    ch-11	    ch-12	    ch-12	    ch-12	    ch-13	    ch-13	    ch-13	    ch-14	    ch-14	    ch-14	    ch-15	    ch-15	    ch-15	    ch-16	    ch-16	    ch-16	    ch-17	    ch-17	    ch-17	    ch-18	    ch-18	    ch-18	    ch-19	    ch-19	    ch-19	    ch-20	    ch-20	    ch-20	    ch-21	    ch-21	    ch-21	    ch-22	    ch-22	    ch-22
Time(sec)	Task	Mark	Count	    oxyHb   	  deoxyHb	  totalHb	    oxyHb   	  deoxyHb	  totalHb	    oxyHb   	  deoxyHb	  totalHb	    oxyHb   	  deoxyHb	  totalHb	    oxyHb   	  deoxyHb	  totalHb	    oxyHb   	  deoxyHb	  totalHb	    oxyHb   	  deoxyHb	  totalHb	    oxyHb   	  deoxyHb	  totalHb	    oxyHb   	  deoxyHb	  totalHb	    oxyHb   	  deoxyHb	  totalHb	    oxyHb   	  deoxyHb	  totalHb	    oxyHb   	  deoxyHb	  totalHb	    oxyHb   	  deoxyHb	  totalHb	    oxyHb   	  deoxyHb	  totalHb	    oxyHb   	  deoxyHb	  totalHb	    oxyHb   	  deoxyHb	  totalHb	    oxyHb   	  deoxyHb	  totalHb	    oxyHb   	  deoxyHb	  totalHb	    oxyHb   	  deoxyHb	  totalHb	    oxyHb   	  deoxyHb	  totalHb	    oxyHb   	  deoxyHb	  totalHb	    oxyHb   	  deoxyHb	  totalHb
     0.000	0	0Z	    0	    0.000000	    0.000000	    0.000000	    0.000000	    0.000000	    0.000000	    0.000000	    0.000000	    0.000000	    0.000000	    0.000000	    0.000000	    0.000000	    0.000000	    0.000000	    0.000000	    0.000000	    0.000000	    0.000000	    0.000000	    0.000000	    0.000000	    0.000000	    0.000000	    0.000000	    0.000000	    0.000000	    0.000000	    0.000000	    0.000000	    0.000000	    0.000000	    0.000000	    0.000000	    0.000000	    0.000000	    0.000000	    0.000000	    0.000000	    0.000000	    0.000000	    0.000000	    0.000000	    0.000000	    0.000000	    0.000000	    0.000000	    0.000000	    0.000000	    0.000000	    0.000000	    0.000000	    0.000000	    0.000000	    0.000000	    0.000000	    0.000000	    0.000000	    0.000000	    0.000000	    0.000000	    0.000000	    0.000000	    0.000000	    0.000000	    0.000000
     0.075	0	0	    0	    0.001392	   -0.002604	   -0.001213	   -0.002482	    0.001983	   -0.000499	   -0.009424	    0.009173	   -0.000251	    0.001803	   -0.002502	   -0.000699	    0.003245	   -0.000731	    0.002514	   -0.017783	    0.026239	    0.008456	   -0.020526	    0.025571	    0.005044	   -0.003240	   -0.000064	   -0.003304	    0.001370	   -0.000497	    0.000872	   -0.035471	    0.031049	   -0.004422	    0.001640	   -0.000268	    0.001372	   -0.000670	    0.001045	    0.000375	    0.000099	    0.000303	    0.000402	   -0.016086	    0.013777	   -0.002309	   -0.024998	    0.013488	   -0.011510	   -0.002768	   -0.001319	   -0.004086	    0.004994	   -0.004502	    0.000491	    0.002105	   -0.003871	   -0.001766	    0.001095	   -0.000463	    0.000632	   -0.001543	    0.000997	   -0.000546	   -0.002399	   -0.003191	   -0.005590	   -0.003521	    0.003675	    0.000154
     0.150	0	0	    0	   -0.000875	    0.002781	    0.001906	    0.001765	   -0.005301	   -0.003536	   -0.000756	   -0.000757	   -0.001512	   -0.001261	   -0.000618	   -0.001879	    0.001700	   -0.006018	   -0.004318	   -0.013274	    0.013291	    0.000016	   -0.003994	   -0.002152	   -0.006146	   -0.002192	   -0.004145	   -0.006337	   -0.003371	    0.000650	   -0.002721	    0.005333	   -0.017589	   -0.012257	    0.001164	    0.000244	    0.001407	   -0.000212	   -0.002301	   -0.002513	    0.002389	   -0.005049	   -0.002660	    0.000341	   -0.016014	   -0.015673	   -0.009607	   -0.079422	   -0.089028	    0.007325	   -0.000913	    0.006412	    0.008123	   -0.010235	   -0.002112	    0.004754	   -0.006288	   -0.001533	    0.000198	    0.000950	    0.001148	    0.003328	   -0.001134	    0.002194	    0.011908	    0.001694	    0.013602	   -0.077317	   -0.022557	   -0.099874
     0.225	0	0	    0	    0.008449	   -0.006466	    0.001982	    0.001316	   -0.000731	    0.000585	   -0.007688	    0.013447	    0.005759	    0.004020	   -0.005306	   -0.001286	    0.004279	   -0.003092	    0.001188	   -0.034558	    0.033390	   -0.001167	   -0.025307	    0.038468	    0.013161	    0.022227	   -0.003031	    0.019197	   -0.006513	   -0.001950	   -0.008463	   -0.035027	    0.037965	    0.002938	    0.001719	   -0.001216	    0.000503	   -0.000009	   -0.000763	   -0.000772	   -0.006530	   -0.004569	   -0.011099	    0.006909	    0.013285	    0.020194	   -0.063069	   -0.085746	   -0.148814	    0.035570	    0.028479	    0.064049	   -0.001549	    0.008265	    0.006715	   -0.000121	   -0.001057	   -0.001178	   -0.000203	    0.000932	    0.000729	    0.007314	    0.003573	    0.010888	    0.058907	    0.036398	    0.095306	   -0.017716	   -0.021606	   -0.039322
     0.300	0	0	    0	    0.024041	   -0.004640	    0.019401	    0.003750	   -0.000674	    0.003075	   -0.004022	    0.007158	    0.003136	    0.006217	   -0.006752	   -0.000535	    0.006216	   -0.014502	   -0.008286	   -0.031071	    0.024277	   -0.006795	   -0.036044	    0.037670	    0.001626	    0.030685	    0.021475	    0.052160	   -0.007470	   -0.000779	   -0.008249	   -0.009447	    0.012721	    0.003274	    0.001107	   -0.000816	    0.000291	   -0.001228	   -0.000493	   -0.001721	   -0.007510	   -0.011348	   -0.018858	    0.007111	    0.029703	    0.036814	   -0.094277	   -0.046394	   -0.140671	    0.035686	    0.044815	    0.080501	   -0.000180	    0.006088	    0.005908	   -0.000064	   -0.001902	   -0.001966	   -0.001721	    0.001612	   -0.000108	    0.007125	    0.005470	    0.012595	    0.049773	    0.089952	    0.139725	   -0.097265	    0.039586	   -0.057680
     0.375	0	0	    0	    0.002808	    0.017831	    0.020639	   -0.002828	    0.003306	    0.000478	   -0.009694	    0.011646	    0.001952	    0.000201	   -0.001584	   -0.001383	   -0.001872	   -0.008669	   -0.010541	   -0.029475	    0.025447	   -0.004027	   -0.098123	    0.035400	   -0.062723	    0.014379	    0.035093	    0.049472	   -0.007968	   -0.001760	   -0.009728	   -0.040032	    0.028748	   -0.011284	   -0.000754	    0.000396	   -0.000358	   -0.002524	    0.000299	   -0.002225	   -0.002878	   -0.015964	   -0.018841	   -0.029073	    0.027110	   -0.001963	   -0.079635	   -0.093782	   -0.173417	    0.012460	    0.035334	    0.047794	    0.000771	   -0.003682	   -0.002911	   -0.003795	   -0.002900	   -0.006695	   -0.003715	    0.001185	   -0.002530	    0.002445	    0.007720	    0.010164	    0.013608	    0.067399	    0.081006	   -0.121982	   -0.060481	   -0.182463
     0.450	0	0	    0	    0.009234	    0.001909	    0.011143	   -0.003334	   -0.000076	   -0.003410	   -0.011930	    0.011870	   -0.000060	    0.003406	   -0.005634	   -0.002229	    0.001812	   -0.012209	   -0.010397	   -0.021663	    0.027029	    0.005366	   -0.038589	    0.018891	   -0.019699	   -0.001535	    0.014706	    0.013171	   -0.009684	   -0.002213	   -0.011897	   -0.013329	    0.000204	   -0.013125	   -0.001782	   -0.000461	   -0.002243	   -0.004656	   -0.000820	   -0.005476	   -0.000760	   -0.014021	   -0.014781	   -0.020443	    0.012530	   -0.007913	   -0.028643	   -0.059206	   -0.087849	   -0.004820	    0.010502	    0.005681	   -0.000355	   -0.009313	   -0.009669	   -0.002267	   -0.005127	   -0.007394	   -0.005170	    0.000407	   -0.004762	   -0.005718	    0.002346	   -0.003373	   -0.010858	    0.021226	    0.010368	   -0.046481	   -0.069774	   -0.116255
     0.525	0	0	    0	    0.009523	   -0.006140	    0.003383	   -0.006127	    0.000800	   -0.005327	   -0.013582	    0.008834	   -0.004748	    0.001410	   -0.005760	   -0.004351	    0.004910	   -0.011156	   -0.006246	   -0.024890	    0.022929	   -0.001961	   -0.035553	    0.025573	   -0.009980	   -0.003147	   -0.002938	   -0.006084	   -0.009569	   -0.000578	   -0.010147	   -0.013660	   -0.003025	   -0.016685	   -0.004584	   -0.000192	   -0.004776	   -0.004917	   -0.001761	   -0.006678	   -0.005541	   -0.005245	   -0.010785	   -0.017971	    0.000196	   -0.017775	   -0.027688	   -0.022283	   -0.049971	   -0.015237	    0.003513	   -0.011723	   -0.008849	   -0.003846	   -0.012695	   -0.005837	   -0.003438	   -0.009275	   -0.005471	   -0.000370	   -0.005841	   -0.009407	    0.000061	   -0.009346	   -0.016444	    0.004833	   -0.011611	   -0.041455	    0.003765	   -0.037691
     0.600	0	0	    0	    0.009398	   -0.014405	   -0.005006	   -0.004811	   -0.002598	   -0.007409	   -0.015701	    0.006855	   -0.008846	    0.001916	   -0.009916	   -0.007999	    0.004381	   -0.012699	   -0.008318	   -0.012910	    0.005603	   -0.007307	   -0.022331	    0.007519	   -0.014812	   -0.007686	   -0.008505	   -0.016191	   -0.012199	    0.000104	   -0.012096	   -0.028452	    0.006456	   -0.021997	   -0.006333	    0.000034	   -0.006299	   -0.006076	   -0.002489	   -0.008565	   -0.013211	    0.003340	   -0.009871	   -0.029734	    0.009717	   -0.020017	   -0.036354	    0.012127	   -0.024227	   -0.020651	    0.000224	   -0.020427	   -0.013501	    0.003778	   -0.009723	   -0.003811	   -0.005602	   -0.009414	   -0.006738	   -0.000217	   -0.006955	   -0.012010	    0.000755	   -0.011255	   -0.023473	   -0.002149	   -0.025623	   -0.043488	    0.011332	   -0.032156
     0.675	0	0	    0	    0.007466	   -0.009419	   -0.001953	   -0.006254	    0.001389	   -0.004866	   -0.014601	    0.011368	   -0.003233	   -0.004659	   -0.003996	   -0.008655	   -0.002178	   -0.006589	   -0.008768	   -0.021542	    0.013966	   -0.007576	   -0.022331	    0.007519	   -0.014812	   -0.010123	   -0.006072	   -0.016195	   -0.009936	   -0.001694	   -0.011629	   -0.008222	   -0.013030	   -0.021252	   -0.002385	   -0.001064	   -0.003449	   -0.007526	   -0.000873	   -0.008399	   -0.010366	   -0.004147	   -0.014512	   -0.023706	    0.004071	   -0.019635	   -0.069909	    0.020623	   -0.049286	   -0.011944	   -0.008766	   -0.020710	    0.000880	   -0.013107	   -0.012228	   -0.004143	   -0.004384	   -0.008527	   -0.003332	   -0.000435	   -0.003767	   -0.008529	   -0.002231	   -0.010760	   -0.012011	   -0.010345	   -0.022357	   -0.035909	   -0.002722	   -0.038632
     0.750	0	0	    0	    0.014499	   -0.009034	    0.005465	    0.004652	   -0.004233	    0.000418	    0.002642	   -0.001139	    0.001503	    0.000557	   -0.004904	   -0.004348	    0.006000	   -0.010919	   -0.004919	   -0.013529	    0.017668	    0.004139	   -0.004388	   -0.003163	   -0.007551	    0.011222	   -0.013849	   -0.002626	   -0.005756	   -0.000986	   -0.006742	   -0.010506	    0.008917	   -0.001589	    0.000512	   -0.000175	    0.000337	   -0.001046	   -0.004415	   -0.005461	   -0.001424	   -0.005127	   -0.006551	    0.002459	   -0.013437	   -0.010978	   -0.036400	   -0.059745	   -0.096145	    0.013877	    0.000195	    0.014072	   -0.001806	   -0.000781	   -0.002587	   -0.002119	    0.000296	   -0.001823	   -0.000556	    0.001490	    0.000934	    0.003085	    0.001124	    0.004209	    0.021507	   -0.000222	    0.021285	   -0.050116	   -0.057507	   -0.107623
     0.825	0	0	    0	    0.023198	    0.029308	    0.052506	    0.006331	    0.010373	    0.016703	    0.000805	    0.029849	    0.030654	    0.009636	    0.001080	    0.010716	    0.024995	    0.009079	    0.034074	   -0.031463	    0.080870	    0.049407	   -0.075001	    0.193729	    0.118727	    0.031131	    0.018653	    0.049784	    0.000825	    0.000333	    0.001158	   -0.063255	    0.158002	    0.094748	    0.003409	    0.000498	    0.003908	    0.004798	    0.003450	    0.008248	   -0.004798	    0.005473	    0.000675	    0.018984	    0.059144	    0.078128	   -0.048247	   -0.052024	   -0.100271	    0.045470	    0.038227	    0.083696	   -0.003735	    0.041850	    0.038115	    0.013153	    0.011491	    0.024644	    0.003646	    0.002800	    0.006445	    0.011129	    0.014639	    0.025768	    0.067492	    0.070752	    0.138245	    0.001558	    0.062400	    0.063958
     0.900	0	0	    0	    0.026592	   -0.021765	    0.004826	    0.006651	    0.000672	    0.007323	   -0.003767	    0.009425	    0.005659	    0.010626	   -0.012996	   -0.002370	    0.024900	   -0.041999	   -0.017098	   -0.033779	    0.031627	   -0.002151	   -0.046803	    0.044291	   -0.002512	    0.038152	    0.015148	    0.053300	   -0.000387	   -0.002574	   -0.002960	    0.001343	   -0.003489	   -0.002146	    0.002178	   -0.001340	    0.000838	    0.004632	   -0.006604	   -0.001972	    0.000209	   -0.013739	   -0.013529	    0.001399	    0.031188	    0.032587	   -0.095882	   -0.048907	   -0.144789	    0.035184	    0.048524	    0.083709	    0.011667	   -0.008439	    0.003228	   -0.000290	   -0.000437	   -0.000727	   -0.001252	    0.002506	    0.001253	    0.014998	    0.004889	    0.019887	    0.052356	    0.088552	    0.140908	   -0.103488	    0.014645	   -0.088843
     0.975	0	0	    0	    0.023810	    0.000079	    0.023889	    0.005903	    0.000234	    0.006137	   -0.002322	    0.008054	    0.005733	    0.007866	   -0.007502	    0.000364	    0.010618	   -0.017309	   -0.006691	   -0.016271	    0.022725	    0.006454	   -0.067220	    0.004370	   -0.062850	    0.022415	    0.027674	    0.050089	   -0.004832	    0.002023	   -0.002808	   -0.015373	    0.015097	   -0.000276	    0.003105	   -0.002002	    0.001103	    0.002057	   -0.000595	    0.001461	   -0.000863	   -0.010577	   -0.011440	   -0.010938	    0.021975	    0.011037	   -0.056901	   -0.076707	   -0.133608	    0.011823	    0.036151	    0.047974	   -0.009937	    0.014796	    0.004859	   -0.001503	   -0.001335	   -0.002838	   -0.002157	    0.001566	   -0.000591	    0.006386	    0.009834	    0.016220	    0.023011	    0.061419	    0.084430	   -0.092605	   -0.064052	   -0.156657
     1.050	0	0	    0	    0.029086	   -0.016276	    0.012810	    0.001354	    0.002317	    0.003671	   -0.006567	    0.010329	    0.003761	    0.009353	   -0.008714	    0.000639	    0.014964	   -0.018362	   -0.003398	   -0.018412	    0.027032	    0.008620	   -0.040949	    0.018727	   -0.022221	    0.011772	    0.014629	    0.026401	   -0.002287	   -0.000491	   -0.002778	   -0.035855	    0.037573	    0.001718	    0.000958	    0.000171	    0.001129	    0.001828	   -0.002968	   -0.001141	    0.006425	   -0.012811	   -0.006386	   -0.002441	    0.010415	    0.007974	   -0.013830	   -0.061563	   -0.075393	    0.010956	    0.007167	    0.018123	    0.010799	   -0.016732	   -0.005933	   -0.002932	    0.000059	   -0.002873	   -0.002538	    0.001761	   -0.000777	    0.003811	    0.000896	    0.004707	    0.006223	    0.020691	    0.026913	   -0.029724	   -0.051669	   -0.081394
     1.125	0	0	    0	    0.010077	   -0.004297	    0.005780	    0.002162	   -0.000920	    0.001241	    0.000147	    0.005414	    0.005562	    0.010114	   -0.008111	    0.002003	    0.012993	   -0.011958	    0.001035	   -0.006648	    0.018149	    0.011501	   -0.009129	    0.021819	    0.012690	    0.013320	   -0.003788	    0.009532	    0.000687	   -0.002087	   -0.001401	   -0.018062	    0.019688	    0.001626	    0.001375	   -0.000837	    0.000538	    0.001127	   -0.001431	   -0.000304	    0.003584	   -0.004158	   -0.000574	   -0.004275	    0.001523	   -0.002752	   -0.013892	   -0.023651	   -0.037543	    0.002087	    0.004511	    0.006598	    0.003720	   -0.009087	   -0.005367	   -0.000172	   -0.002129	   -0.002301	   -0.001614	    0.000463	   -0.001151	   -0.000595	    0.001526	    0.000931	   -0.000371	    0.009243	    0.008872	   -0.004789	   -0.011357	   -0.016146
     1.200	0	0	    0	    0.017095	   -0.012251	    0.004844	    0.003652	   -0.004557	   -0.000905	   -0.006227	    0.003915	   -0.002312	    0.005553	   -0.006576	   -0.001022	    0.011725	   -0.011383	    0.000342	   -0.013625	    0.018603	    0.004978	   -0.005071	    0.006317	    0.001246	    0.008797	   -0.005422	    0.003376	   -0.003223	    0.000157	   -0.003067	   -0.026366	    0.012930	   -0.013436	   -0.001247	   -0.000393	   -0.001640	   -0.000022	   -0.001811	   -0.001833	    0.001120	   -0.004083	   -0.002963	   -0.016519	    0.010525	   -0.005994	   -0.037865	    0.017389	   -0.020475	   -0.002544	   -0.000100	   -0.002644	    0.001459	   -0.008077	   -0.006618	   -0.003912	   -0.003120	   -0.007032	   -0.001758	   -0.000078	   -0.001836	   -0.001759	    0.000406	   -0.001353	   -0.004407	    0.001176	   -0.003232	   -0.020335	    0.001961	   -0.018374
     1.275	0	0	    0	    0.015977	   -0.023549	   -0.007573	   -0.003387	   -0.000401	   -0.003788	   -0.008222	    0.004715	   -0.003507	    0.004893	   -0.008624	   -0.003731	    0.010252	   -0.016297	   -0.006045	   -0.021931	    0.019249	   -0.002682	   -0.028164	    0.026616	   -0.001548	    0.007563	   -0.008849	   -0.001285	   -0.002681	   -0.001942	   -0.004623	   -0.027387	    0.017337	   -0.010049	   -0.001369	   -0.000904	   -0.002273	   -0.001802	   -0.001881	   -0.003683	   -0.001969	   -0.004266	   -0.006235	   -0.016197	   -0.001466	   -0.017663	   -0.028274	   -0.050171	   -0.078445	    0.000253	   -0.005587	   -0.005334	    0.000418	   -0.007628	   -0.007211	   -0.002822	   -0.002453	   -0.005275	   -0.002842	    0.000978	   -0.001864	   -0.002500	   -0.000333	   -0.002833	    0.001290	   -0.007743	   -0.006452	   -0.072059	   -0.013897	   -0.085957
     1.350	0	0	    0	    0.005345	   -0.003392	    0.001953	   -0.002622	   -0.000708	   -0.003330	   -0.013569	    0.014334	    0.000765	    0.001696	   -0.005683	   -0.003987	    0.003763	   -0.004152	   -0.000389	   -0.026366	    0.035313	    0.008947	   -0.043702	    0.035453	   -0.008249	    0.012105	   -0.007867	    0.004238	   -0.007858	   -0.000704	   -0.008562	   -0.027182	    0.020723	   -0.006459	   -0.001030	   -0.001388	   -0.002418	   -0.002459	   -0.001059	   -0.003518	   -0.004961	   -0.002508	   -0.007469	    0.000283	    0.006588	    0.006871	   -0.043526	   -0.053011	   -0.096537	    0.012843	    0.000466	    0.013309	    0.002238	   -0.006383	   -0.004145	   -0.001847	   -0.000927	   -0.002774	   -0.001998	    0.001074	   -0.000924	    0.001430	    0.002118	    0.003549	    0.020568	    0.011001	    0.031569	   -0.071401	   -0.056147	   -0.127548
     1.425	0	0	    0	    0.010077	   -0.004297	    0.005780	   -0.003103	    0.000363	   -0.002740	   -0.017439	    0.017474	    0.000035	    0.002963	   -0.007286	   -0.004323	    0.008572	   -0.011919	   -0.003348	   -0.049063	    0.040359	   -0.008704	   -0.053152	    0.059937	    0.006785	    0.025625	    0.007538	    0.033163	   -0.010182	   -0.004266	   -0.014448	   -0.036751	    0.019804	   -0.016947	   -0.001748	   -0.001273	   -0.003022	   -0.001330	   -0.002065	   -0.003395	   -0.013143	   -0.008000	   -0.021142	    0.005553	    0.033358	    0.038911	   -0.055586	   -0.064354	   -0.119940	    0.031012	    0.032556	    0.063568	    0.006959	   -0.015028	   -0.008069	   -0.003514	   -0.004359	   -0.007873	   -0.004639	    0.001384	   -0.003256	    0.004411	    0.006344	    0.010755	    0.058540	    0.057128	    0.115668	   -0.039200	    0.013833	   -0.025366
     1.500	0	0	    0	    0.014757	   -0.005939	    0.008818	   -0.006569	    0.004412	   -0.002158	   -0.014839	    0.010400	   -0.004439	    0.004619	   -0.010702	   -0.006083	    0.010471	   -0.022062	   -0.011591	   -0.047882	    0.036574	   -0.011307	   -0.097249	    0.082390	   -0.014860	    0.029100	    0.024668	    0.053768	   -0.010606	   -0.003992	   -0.014598	   -0.052634	    0.038040	   -0.014595	   -0.001854	   -0.001635	   -0.003489	   -0.003047	   -0.001803	   -0.004851	   -0.008763	   -0.017575	   -0.026339	   -0.020071	    0.045654	    0.025583	   -0.085711	   -0.063579	   -0.149290	    0.026909	    0.042902	    0.069811	    0.003666	   -0.010337	   -0.006671	   -0.006911	   -0.003285	   -0.010196	   -0.006645	    0.002333	   -0.004311	    0.003506	    0.006140	    0.009645	    0.035193	    0.086075	    0.121268	   -0.116261	   -0.005465	   -0.121726
     1.575	0	0	    0	    0.017003	   -0.013906	    0.003097	   -0.004686	   -0.003182	   -0.007868	   -0.006898	    0.002632	   -0.004266	    0.001915	   -0.005957	   -0.004042	    0.008887	   -0.022794	   -0.013908	   -0.031944	    0.029314	   -0.002630	   -0.080459	    0.007871	   -0.072587	    0.015904	    0.030158	    0.046062	   -0.011257	   -0.005875	   -0.017131	   -0.021155	    0.010669	   -0.010486	   -0.003074	   -0.000736	   -0.003810	   -0.003149	   -0.003365	   -0.006514	   -0.004594	   -0.018965	   -0.023559	   -0.021477	    0.015403	   -0.006074	   -0.054021	   -0.075708	   -0.129729	    0.001921	    0.030425	    0.032346	   -0.003063	   -0.007139	   -0.010202	   -0.011982	    0.001429	   -0.010553	   -0.008690	    0.002259	   -0.006431	   -0.002588	    0.006315	    0.003727	   -0.002816	    0.061826	    0.059010	   -0.126676	   -0.074922	   -0.201599
     1.650	0	0	    0	    0.013999	   -0.016032	   -0.002033	   -0.003212	   -0.006763	   -0.009976	   -0.005306	    0.000656	   -0.004650	    0.002569	   -0.008987	   -0.006418	    0.008377	   -0.023807	   -0.015430	   -0.024031	    0.020258	   -0.003773	   -0.028859	   -0.002548	   -0.031407	   -0.000875	    0.006415	    0.005540	   -0.014595	   -0.005150	   -0.019745	   -0.014774	    0.000783	   -0.013991	   -0.003363	   -0.001555	   -0.004918	   -0.005039	   -0.003591	   -0.008631	   -0.008081	   -0.011781	   -0.019863	   -0.019728	    0.007053	   -0.012675	   -0.025007	   -0.065028	   -0.090035	   -0.009592	    0.005398	   -0.004194	   -0.009980	   -0.001575	   -0.011555	   -0.008149	   -0.002523	   -0.010672	   -0.008038	    0.000271	   -0.007767	   -0.008073	    0.001168	   -0.006905	   -0.016023	    0.014629	   -0.001394	   -0.058093	   -0.069389	   -0.127481
     1.725	0	0	    0	    0.000930	    0.000554	    0.001484	   -0.005307	    0.000862	   -0.004445	   -0.010690	    0.010750	    0.000060	   -0.000500	   -0.005103	   -0.005603	    0.001279	   -0.010921	   -0.009643	   -0.016862	    0.016148	   -0.000714	   -0.045057	    0.049002	    0.003946	   -0.000492	    0.000719	    0.000227	   -0.008086	   -0.004395	   -0.012481	   -0.043679	    0.047170	    0.003491	   -0.000386	   -0.001519	   -0.001905	   -0.007053	   -0.003141	   -0.010194	   -0.002220	   -0.012837	   -0.015057	   -0.019305	    0.006044	   -0.013261	   -0.012300	   -0.018833	   -0.031132	   -0.003118	   -0.001341	   -0.004459	    0.000413	   -0.008117	   -0.007704	   -0.000877	   -0.002136	   -0.003013	   -0.004089	   -0.000048	   -0.004137	   -0.006235	   -0.000803	   -0.007038	   -0.006222	    0.004955	   -0.001266	   -0.011170	   -0.019164	   -0.030334
     1.800	0	0	    0	   -0.000180	   -0.006446	   -0.006626	    0.002193	   -0.004065	   -0.001872	    0.002805	   -0.000918	    0.001886	    0.004328	   -0.006583	   -0.002254	    0.005548	   -0.014748	   -0.009201	    0.000679	   -0.001660	   -0.000981	    0.013952	   -0.014062	   -0.000110	    0.004520	    0.003155	    0.007675	    0.002415	   -0.007390	   -0.004975	    0.006785	   -0.018171	   -0.011386	    0.000759	   -0.001452	   -0.000693	   -0.002792	   -0.003373	   -0.006165	    0.004135	   -0.010329	   -0.006193	   -0.007541	    0.008928	    0.001388	    0.000295	    0.006971	    0.007267	    0.005605	   -0.003671	    0.001935	    0.010267	   -0.019225	   -0.008957	    0.002813	   -0.003869	   -0.001056	   -0.003052	    0.000945	   -0.002106	   -0.000858	   -0.000073	   -0.000931	   -0.001037	    0.001710	    0.000673	   -0.001432	    0.004345	    0.002913
     1.875	0	0	    0	    0.012233	   -0.012943	   -0.000710	   -0.000342	    0.000232	   -0.000109	   -0.008676	    0.018140	    0.009464	    0.004218	   -0.004223	   -0.000005	    0.005457	   -0.009095	   -0.003638	   -0.025444	    0.033327	    0.007883	   -0.036113	    0.060976	    0.024863	    0.004983	    0.001490	    0.006473	   -0.000522	   -0.001751	   -0.002273	   -0.023749	    0.007047	   -0.016703	    0.000748	   -0.000450	    0.000298	   -0.002226	   -0.001780	   -0.004006	    0.001222	   -0.003785	   -0.002563	   -0.014396	    0.012332	   -0.002064	   -0.035540	   -0.014841	   -0.050380	    0.007185	    0.000864	    0.008049	    0.008485	   -0.016470	   -0.007985	   -0.004018	    0.000212	   -0.003806	   -0.002505	    0.002073	   -0.000432	    0.001611	    0.000489	    0.002100	    0.008268	    0.000072	    0.008340	   -0.059400	    0.015202	   -0.044199
     1.950	0	0	    0	    0.017666	   -0.010435	    0.007230	    0.001474	   -0.000740	    0.000734	   -0.006386	    0.008391	    0.002005	    0.006148	   -0.007774	   -0.001626	    0.009763	   -0.010620	   -0.000857	   -0.031229	    0.034851	    0.003622	   -0.031293	    0.030216	   -0.001078	    0.021880	   -0.009163	    0.012717	   -0.003093	   -0.002019	   -0.005112	   -0.013798	    0.001616	   -0.012182	    0.001691	   -0.002550	   -0.000859	   -0.000437	   -0.002979	   -0.003416	    0.001233	   -0.006109	   -0.004876	    0.001308	    0.013155	    0.014462	   -0.038991	   -0.044698	   -0.083689	    0.025153	    0.004752	    0.029906	    0.009446	   -0.012345	   -0.002899	   -0.002935	   -0.000773	   -0.003707	   -0.002383	    0.002822	    0.000438	    0.005687	    0.002794	    0.008482	    0.034143	    0.005692	    0.039835	   -0.053923	   -0.044888	   -0.098810
     2.025	0	0	    0	    0.015593	   -0.000950	    0.014642	    0.006926	   -0.002361	    0.004565	    0.001729	    0.000004	    0.001733	    0.005256	   -0.007091	   -0.001835	    0.009379	   -0.012968	   -0.003589	   -0.033564	    0.025796	   -0.007768	    0.001625	    0.030258	    0.031883	    0.033252	    0.010409	    0.043661	   -0.003880	   -0.003383	   -0.007263	   -0.006401	    0.003803	   -0.002598	    0.002346	   -0.003188	   -0.000842	   -0.000870	    0.000001	   -0.000869	   -0.003067	   -0.014442	   -0.017510	    0.021741	    0.025364	    0.047105	   -0.032694	   -0.062732	   -0.095426	    0.044566	    0.034752	    0.079319	    0.013227	   -0.013014	    0.000213	    0.004080	   -0.004649	   -0.000569	   -0.001929	    0.002063	    0.000135	    0.011840	    0.006108	    0.017948	    0.069563	    0.064029	    0.133591	   -0.026276	    0.017255	   -0.009022
     2.100	0	0	    0	    0.013197	    0.003828	    0.017025	    0.003657	    0.000793	    0.004451	   -0.004443	    0.008115	    0.003672	    0.006688	   -0.007124	   -0.000436	    0.009814	   -0.016266	   -0.006452	   -0.029669	    0.024096	   -0.005573	   -0.050644	    0.045831	   -0.004813	    0.031848	    0.033057	    0.064906	   -0.002547	   -0.003522	   -0.006069	   -0.029221	    0.034837	    0.005616	    0.002409	   -0.002655	   -0.000245	   -0.000022	   -0.001811	   -0.001833	   -0.000841	   -0.016718	   -0.017560	   -0.001629	    0.034961	    0.033332	   -0.079508	   -0.053678	   -0.133186	    0.036377	    0.046612	    0.082989	    0.002095	    0.005091	    0.007186	   -0.000917	    0.002292	    0.001374	   -0.002788	    0.002602	   -0.000185	    0.012060	    0.007753	    0.019813	    0.043829	    0.091876	    0.135705	   -0.102015	    0.003329	   -0.098687
     2.175	0	0	    0	    0.012853	    0.003383	    0.016236	    0.001927	    0.001391	    0.003318	   -0.007844	    0.011919	    0.004075	    0.002888	   -0.002543	    0.000346	    0.004683	   -0.014775	   -0.010092	   -0.025247	    0.027398	    0.002151	   -0.058485	    0.027971	   -0.030514	    0.018832	    0.034883	    0.053715	   -0.003879	   -0.002625	   -0.006504	   -0.030698	    0.035429	    0.004731	    0.002442	   -0.002960	   -0.000519	   -0.001318	   -0.001019	   -0.002337	    0.004307	   -0.019769	   -0.015462	   -0.002475	    0.019444	    0.016969	   -0.029108	   -0.072639	   -0.101747	    0.015929	    0.027820	    0.043750	    0.010239	   -0.011146	   -0.000907	    0.000490	   -0.004588	   -0.004099	   -0.003959	    0.001973	   -0.001986	    0.004629	    0.008144	    0.012772	    0.011617	    0.061596	    0.073213	   -0.095092	   -0.055854	   -0.150947
     2.250	0	0	    0	    0.011950	   -0.002383	    0.009567	   -0.002944	    0.001432	   -0.001512	   -0.014480	    0.014189	   -0.000290	    0.006229	   -0.008100	   -0.001871	    0.005548	   -0.014748	   -0.009201	   -0.022792	    0.028403	    0.005611	   -0.058776	    0.059118	    0.000342	    0.006190	    0.013272	    0.019462	   -0.006417	   -0.001554	   -0.007971	   -0.044501	    0.044621	    0.000120	    0.001623	   -0.002606	   -0.000983	   -0.002678	   -0.002580	   -0.005257	    0.002147	   -0.010882	   -0.008735	   -0.017512	    0.016075	   -0.001438	   -0.015218	   -0.052604	   -0.067822	    0.004378	    0.008352	    0.012730	   -0.001477	   -0.001688	   -0.003165	   -0.006418	    0.002817	   -0.003600	   -0.004463	    0.001471	   -0.002991	   -0.001771	    0.004111	    0.002341	   -0.001262	    0.018118	    0.016856	   -0.039138	   -0.028870	   -0.068007
     2.325	0	0	    0	    0.018330	   -0.013857	    0.004472	    0.003531	   -0.003969	   -0.000439	   -0.008156	    0.008444	    0.000289	    0.005229	   -0.006827	   -0.001598	    0.013522	   -0.019807	   -0.006285	   -0.011228	    0.017283	    0.006055	   -0.001845	    0.012499	    0.010654	    0.004710	   -0.001674	    0.003037	   -0.006573	    0.000718	   -0.005855	   -0.013579	    0.011077	   -0.002501	   -0.001171	   -0.002017	   -0.003188	   -0.003017	   -0.003210	   -0.006227	   -0.000508	   -0.004631	   -0.005140	   -0.016086	    0.013777	   -0.002309	   -0.007549	   -0.008507	   -0.016056	   -0.005625	    0.006107	    0.000482	   -0.005921	    0.003077	   -0.002844	   -0.001623	   -0.002385	   -0.004009	   -0.005162	    0.001201	   -0.003961	   -0.005591	    0.002766	   -0.002825	   -0.010208	    0.007500	   -0.002708	   -0.006996	   -0.001410	   -0.008406
     2.400	0	0	    0	    0.016834	   -0.011979	    0.004855	    0.000464	   -0.001903	   -0.001440	   -0.004556	   -0.000698	   -0.005254	    0.002357	   -0.005416	   -0.003058	    0.007658	   -0.012442	   -0.004785	   -0.008398	    0.007241	   -0.001157	   -0.006088	    0.016934	    0.010846	    0.002167	   -0.005146	   -0.002980	   -0.002014	   -0.002900	   -0.004914	   -0.017566	    0.008503	   -0.009063	   -0.001759	   -0.001965	   -0.003724	   -0.004301	   -0.002425	   -0.006726	   -0.004447	   -0.002526	   -0.006974	   -0.013955	    0.010234	   -0.003721	    0.000048	    0.001139	    0.001187	   -0.006970	   -0.002002	   -0.008971	    0.001981	   -0.008302	   -0.006321	   -0.000533	   -0.002543	   -0.003076	   -0.005668	    0.001233	   -0.004436	   -0.006107	   -0.000069	   -0.006176	   -0.013906	    0.000444	   -0.013462	   -0.003181	    0.000782	   -0.002399
     2.475	0	0	    0	    0.001928	   -0.004117	   -0.002190	   -0.002087	   -0.002483	   -0.004569	   -0.009414	    0.006602	   -0.002812	    0.001421	   -0.004232	   -0.002811	    0.001578	   -0.012480	   -0.010902	   -0.019308	    0.016775	   -0.002532	    0.001364	    0.010752	    0.012117	   -0.006359	   -0.004053	   -0.010412	   -0.007080	    0.000750	   -0.006330	   -0.017090	    0.007061	   -0.010030	   -0.001643	   -0.001510	   -0.003153	   -0.005993	   -0.003841	   -0.009833	   -0.007170	   -0.002674	   -0.009844	   -0.028901	    0.016978	   -0.011923	   -0.049374	    0.003210	   -0.046164	   -0.008172	   -0.003079	   -0.011251	   -0.001151	   -0.007443	   -0.008595	   -0.003674	    0.001717	   -0.001957	   -0.006439	    0.002003	   -0.004436	   -0.010055	    0.000923	   -0.009132	   -0.010344	   -0.005294	   -0.015638	   -0.038415	    0.001854	   -0.036561
     2.550	0	0	    0	    0.007745	   -0.010640	   -0.002895	   -0.002385	   -0.002993	   -0.005379	   -0.009745	    0.004898	   -0.004846	    0.001956	   -0.006894	   -0.004938	    0.002210	   -0.012725	   -0.010516	   -0.018533	    0.019848	    0.001315	   -0.014760	    0.004484	   -0.010276	   -0.002054	   -0.008511	   -0.010565	   -0.007829	   -0.002576	   -0.010405	   -0.021417	    0.016961	   -0.004456	   -0.002216	   -0.001352	   -0.003568	   -0.005644	   -0.003976	   -0.009620	   -0.007391	   -0.004575	   -0.011966	    0.002471	   -0.010653	   -0.008182	   -0.027049	   -0.068365	   -0.095414	    0.008752	   -0.003236	    0.005516	   -0.002335	   -0.001056	   -0.003391	    0.003140	   -0.005098	   -0.001957	   -0.005944	    0.002555	   -0.003388	   -0.004175	    0.000478	   -0.003697	    0.002548	    0.002784	    0.005332	   -0.069046	   -0.056124	   -0.125170
     2.625	0	0	    0	    0.008460	   -0.003101	    0.005359	   -0.001101	   -0.001075	   -0.002175	   -0.009171	    0.000810	   -0.008361	    0.001390	   -0.007716	   -0.006327	    0.002071	   -0.011439	   -0.009367	   -0.042342	    0.030466	   -0.011877	   -0.033514	    0.068198	    0.034684	    0.019944	    0.002795	    0.022739	   -0.012543	   -0.002774	   -0.015317	   -0.025453	    0.023520	   -0.001933	   -0.003221	   -0.001484	   -0.004706	   -0.005327	   -0.002713	   -0.008039	   -0.017211	   -0.006340	   -0.023550	    0.005882	    0.022136	    0.028018	   -0.054631	   -0.072827	   -0.127457	    0.032968	    0.033232	    0.066200	   -0.011020	    0.009453	   -0.001567	   -0.002998	   -0.002662	   -0.005659	   -0.007518	    0.002938	   -0.004579	   -0.001807	    0.007367	    0.005561	    0.051098	    0.055770	    0.106868	   -0.023090	    0.008222	   -0.014868
     2.700	0	0	    0	    0.017588	   -0.001726	    0.015862	    0.002800	   -0.000389	    0.002411	   -0.002173	    0.002712	    0.000539	    0.005190	   -0.009221	   -0.004031	    0.005748	   -0.018284	   -0.012536	   -0.038934	    0.028587	   -0.010347	   -0.065633	    0.081272	    0.015639	    0.029354	    0.027083	    0.056436	   -0.003757	   -0.008376	   -0.012133	   -0.026632	    0.038141	    0.011509	    0.001225	   -0.002547	   -0.001322	   -0.004551	   -0.003161	   -0.007711	   -0.003605	   -0.021719	   -0.025324	   -0.007448	    0.048257	    0.040809	   -0.086756	   -0.057015	   -0.143771	    0.036662	    0.045048	    0.081711	    0.013567	   -0.007203	    0.006365	    0.002325	    0.000743	    0.003068	   -0.004530	    0.002831	   -0.001699	    0.006934	    0.004545	    0.011479	    0.049847	    0.090136	    0.139983	   -0.099819	    0.020721	   -0.079098
     2.775	0	0	    0	    0.029751	   -0.014499	    0.015252	    0.003777	    0.001538	    0.005315	   -0.002742	    0.010315	    0.007573	    0.007253	   -0.004941	    0.002312	    0.008843	   -0.020572	   -0.011729	   -0.020334	    0.019672	   -0.000662	   -0.081185	    0.029438	   -0.051747	    0.027590	    0.027331	    0.054922	   -0.000410	   -0.005181	   -0.005591	   -0.003448	    0.015696	    0.012248	    0.003572	   -0.001978	    0.001593	   -0.000734	   -0.004187	   -0.004921	    0.003317	   -0.018434	   -0.015117	   -0.010168	    0.023446	    0.013278	   -0.051668	   -0.086740	   -0.138408	    0.019151	    0.037440	    0.056591	    0.005069	    0.002223	    0.007292	    0.003125	   -0.000689	    0.002437	   -0.003474	    0.002913	   -0.000561	    0.008751	    0.008156	    0.016907	    0.025153	    0.068987	    0.094141	   -0.098049	   -0.050344	   -0.148394
     2.850	0	0	    0	    0.011918	    0.005478	    0.017396	    0.005829	    0.000113	    0.005942	    0.001563	    0.010625	    0.012188	    0.010482	   -0.004758	    0.005724	    0.004413	   -0.008323	   -0.003910	   -0.009875	    0.023815	    0.013940	   -0.011405	    0.017527	    0.006122	    0.005013	    0.028075	    0.033088	    0.000542	   -0.001596	   -0.001054	   -0.025363	    0.024086	   -0.001278	    0.005578	   -0.002086	    0.003491	   -0.000884	   -0.002522	   -0.003405	    0.008517	   -0.011136	   -0.002619	   -0.003477	    0.019081	    0.015604	    0.001470	   -0.061528	   -0.060059	    0.016876	    0.010272	    0.027148	    0.004912	   -0.002140	    0.002771	    0.007312	   -0.005945	    0.001367	   -0.000914	    0.001198	    0.000284	    0.004178	    0.005984	    0.010162	    0.008290	    0.027945	    0.036236	   -0.027401	   -0.059001	   -0.086402
     2.925	0	0	    0	    0.008360	   -0.003814	    0.004546	    0.006290	   -0.001805	    0.004485	   -0.002633	    0.005455	    0.002822	    0.006535	   -0.004703	    0.001832	    0.012643	   -0.013727	   -0.001084	   -0.005698	    0.016127	    0.010429	   -0.013679	    0.019221	    0.005542	    0.012334	    0.003684	    0.016018	    0.005820	   -0.004417	    0.001403	   -0.012240	    0.007620	   -0.004621	    0.004174	   -0.002609	    0.001565	    0.001279	   -0.003660	   -0.002381	    0.010919	   -0.006731	    0.004188	   -0.014817	    0.016075	    0.001257	   -0.008044	   -0.028249	   -0.036293	    0.011771	    0.006995	    0.018766	    0.003799	   -0.002959	    0.000840	    0.000073	   -0.000019	    0.000053	   -0.002005	    0.001892	   -0.000113	    0.003342	    0.002572	    0.005914	    0.004231	    0.012864	    0.017095	    0.003729	   -0.005022	   -0.001293
     3.000	0	0	    0	    0.002659	    0.000846	    0.003505	    0.004378	    0.000109	    0.004486	   -0.002833	    0.008259	    0.005427	    0.003760	   -0.002309	    0.001451	    0.004846	   -0.003891	    0.000955	   -0.011218	    0.020526	    0.009307	   -0.011402	    0.029599	    0.018198	    0.003493	    0.005840	    0.009333	    0.000114	    0.002021	    0.002134	   -0.014842	    0.013596	   -0.001246	    0.002562	   -0.000944	    0.001619	   -0.000038	   -0.001669	   -0.001707	    0.003434	    0.001786	    0.005220	   -0.011660	    0.015022	    0.003362	   -0.006564	    0.002632	   -0.003932	    0.004495	    0.006172	    0.010667	   -0.001084	   -0.000325	   -0.001409	    0.005595	   -0.004156	    0.001439	   -0.001993	    0.002040	    0.000047	    0.000100	    0.003274	    0.003373	    0.000192	    0.005259	    0.005451	    0.008908	    0.015202	    0.024109
     3.075	0	0	    0	    0.008109	   -0.006895	    0.001214	    0.001237	    0.001571	    0.002809	   -0.001380	    0.006027	    0.004647	    0.009051	   -0.007439	    0.001613	    0.009026	   -0.008042	    0.000983	   -0.020895	    0.026030	    0.005135	   -0.021592	    0.041208	    0.019616	    0.010434	   -0.003275	    0.007159	    0.004085	   -0.001555	    0.002530	   -0.024833	    0.021092	   -0.003741	    0.005006	   -0.002351	    0.002655	   -0.000816	   -0.000798	   -0.001614	    0.005306	   -0.003137	    0.002169	   -0.022546	    0.015831	   -0.006715	   -0.003208	   -0.069846	   -0.073053	    0.011082	    0.002610	    0.013692	    0.002931	   -0.002822	    0.000109	    0.006685	   -0.005144	    0.001541	   -0.000373	    0.002179	    0.001806	    0.002124	    0.000598	    0.002722	    0.012169	    0.001749	    0.013918	   -0.034156	    0.004969	   -0.029186
     3.150	0	0	    0	    0.015339	   -0.010097	    0.005242	    0.003983	   -0.000279	    0.003705	   -0.002658	    0.011078	    0.008420	    0.003820	   -0.003053	    0.000767	    0.011913	   -0.008274	    0.003638	   -0.025155	    0.031348	    0.006192	   -0.028010	    0.057727	    0.029718	    0.017495	    0.005516	    0.023011	    0.001070	   -0.004453	   -0.003382	   -0.011885	    0.019266	    0.007381	    0.004531	   -0.002360	    0.002171	   -0.000085	   -0.001086	   -0.001172	   -0.001241	   -0.000708	   -0.001949	    0.008782	    0.021535	    0.030317	   -0.054036	   -0.063553	   -0.117589	    0.045770	    0.010247	    0.056017	    0.013140	   -0.011160	    0.001980	    0.004769	   -0.004382	    0.000387	   -0.001076	    0.003130	    0.002054	    0.008900	    0.003853	    0.012753	    0.053067	    0.020730	    0.073797	   -0.000521	   -0.041967	   -0.042488
     3.225	0	0	    0	    0.008395	    0.004719	    0.013114	    0.005757	   -0.000009	    0.005748	   -0.006680	    0.014354	    0.007674	    0.007809	   -0.004521	    0.003289	   -0.000117	   -0.008113	   -0.008230	   -0.042679	    0.038737	   -0.003942	   -0.051106	    0.084919	    0.033812	    0.033057	    0.028355	    0.061413	    0.001082	   -0.005056	   -0.003973	   -0.020880	    0.032874	    0.011994	    0.004513	   -0.002575	    0.001937	   -0.001039	   -0.000001	   -0.001041	    0.000716	   -0.016018	   -0.015302	    0.009852	    0.050809	    0.060661	   -0.050751	   -0.052906	   -0.103657	    0.049055	    0.045843	    0.094898	    0.014880	   -0.006510	    0.008370	    0.007983	   -0.005109	    0.002874	   -0.001686	    0.003313	    0.001626	    0.010657	    0.007824	    0.018480	    0.068438	    0.086882	    0.155320	   -0.030531	    0.039149	    0.008618
     3.300	0	0	    0	    0.013743	    0.005749	    0.019491	    0.004612	    0.000506	    0.005118	    0.002714	    0.003522	    0.006236	    0.009037	   -0.005405	    0.003632	    0.009117	   -0.019819	   -0.010702	   -0.028721	    0.023716	   -0.005005	   -0.053924	    0.039752	   -0.014172	    0.035545	    0.031987	    0.067532	    0.000933	   -0.005326	   -0.004393	   -0.010941	    0.013320	    0.002379	    0.004086	   -0.002784	    0.001302	    0.000189	   -0.002177	   -0.001988	    0.001637	   -0.017809	   -0.016172	   -0.010296	    0.038067	    0.027771	   -0.080559	   -0.074771	   -0.155330	    0.034134	    0.046940	    0.081074	    0.012290	   -0.006920	    0.005370	    0.001840	   -0.002657	   -0.000817	   -0.003131	    0.003059	   -0.000072	    0.009737	    0.007498	    0.017234	    0.031982	    0.088707	    0.120689	   -0.100719	   -0.027269	   -0.127988
     3.375	0	0	    0	    0.021949	   -0.007242	    0.014707	    0.003369	   -0.001310	    0.002059	   -0.003523	    0.005672	    0.002148	    0.007193	   -0.007765	   -0.000572	    0.010903	   -0.024790	   -0.013887	   -0.013898	    0.014074	    0.000176	   -0.038127	   -0.005346	   -0.043473	    0.020953	    0.027625	    0.048578	   -0.002427	   -0.003482	   -0.005909	   -0.011127	   -0.007381	   -0.018508	    0.002406	   -0.002203	    0.000203	   -0.002184	   -0.002147	   -0.004331	    0.000217	   -0.016144	   -0.015927	   -0.008724	    0.025554	    0.016830	   -0.033283	   -0.058669	   -0.091952	    0.008344	    0.029772	    0.038116	   -0.000187	   -0.005076	   -0.005263	   -0.005504	   -0.004658	   -0.010162	   -0.005379	    0.002350	   -0.003030	   -0.001663	    0.008497	    0.006834	   -0.002257	    0.052473	    0.050217	   -0.061443	   -0.086859	   -0.148301
     3.450	0	0	    0	    0.009879	   -0.002333	    0.007546	   -0.003088	    0.002277	   -0.000811	   -0.012597	    0.009722	   -0.002874	    0.002273	   -0.003319	   -0.001046	    0.006088	   -0.016552	   -0.010464	   -0.018431	    0.022146	    0.003715	   -0.028628	    0.033534	    0.004906	    0.001758	    0.012653	    0.014410	   -0.001781	   -0.006526	   -0.008307	   -0.027599	    0.025102	   -0.002497	   -0.000241	   -0.000942	   -0.001183	   -0.003042	   -0.003482	   -0.006524	    0.001380	   -0.009782	   -0.008402	   -0.014394	    0.011798	   -0.002596	   -0.013858	   -0.053230	   -0.067088	    0.007092	    0.002325	    0.009417	    0.005917	   -0.014579	   -0.008662	   -0.002977	   -0.001014	   -0.003991	   -0.006094	    0.002464	   -0.003630	   -0.003703	    0.002871	   -0.000832	   -0.007928	    0.014287	    0.006359	   -0.007355	   -0.016280	   -0.023634
     3.525	0	0	    0	   -0.012892	    0.012125	   -0.000768	   -0.004941	    0.001498	   -0.003443	   -0.015379	    0.007281	   -0.008097	   -0.003459	   -0.000485	   -0.003944	   -0.005009	   -0.001952	   -0.006962	   -0.023293	    0.018542	   -0.004751	   -0.032808	    0.037288	    0.004480	   -0.007160	    0.007335	    0.000176	   -0.000965	   -0.004771	   -0.005735	   -0.019691	    0.011528	   -0.008163	   -0.001011	   -0.002332	   -0.003343	   -0.004855	   -0.002138	   -0.006994	   -0.000562	   -0.006601	   -0.007162	   -0.025636	    0.019543	   -0.006094	   -0.015723	   -0.006879	   -0.022602	   -0.002664	   -0.000768	   -0.003432	    0.007220	   -0.016659	   -0.009438	   -0.004818	    0.000802	   -0.004016	   -0.006832	    0.002463	   -0.004368	   -0.005862	    0.000923	   -0.004938	   -0.014280	    0.003773	   -0.010507	   -0.014351	    0.009733	   -0.004618
     3.600	0	0	    0	   -0.002131	    0.004387	    0.002256	   -0.007785	    0.005241	   -0.002544	   -0.015512	    0.003696	   -0.011816	   -0.001493	   -0.005823	   -0.007317	    0.001572	   -0.008616	   -0.007045	   -0.033246	    0.026960	   -0.006287	   -0.040300	    0.032944	   -0.007355	   -0.006641	   -0.002346	   -0.008987	   -0.003478	   -0.003131	   -0.006610	   -0.024213	    0.004756	   -0.019457	   -0.002608	   -0.002424	   -0.005032	   -0.005583	   -0.002268	   -0.007851	   -0.003203	   -0.005626	   -0.008829	   -0.033313	    0.017768	   -0.015545	   -0.043678	    0.011517	   -0.032161	   -0.010015	   -0.001381	   -0.011396	    0.003813	   -0.014150	   -0.010337	   -0.005555	   -0.000285	   -0.005840	   -0.007457	    0.002163	   -0.005293	   -0.008005	    0.000341	   -0.007665	   -0.016552	   -0.003330	   -0.019881	   -0.014663	   -0.004688	   -0.019351
     3.675	0	0	    0	    0.000742	   -0.013375	   -0.012633	   -0.002441	   -0.005734	   -0.008175	   -0.014120	    0.007429	   -0.006691	   -0.002323	   -0.004772	   -0.007095	    0.001158	   -0.012464	   -0.011306	   -0.014223	    0.007315	   -0.006908	   -0.000008	    0.001334	    0.001327	   -0.012043	   -0.001267	   -0.013310	   -0.007700	   -0.003968	   -0.011669	   -0.019465	    0.003888	   -0.015577	   -0.002565	   -0.002039	   -0.004604	   -0.007206	   -0.002944	   -0.010150	   -0.006150	   -0.005520	   -0.011670	   -0.024988	   -0.004228	   -0.029216	   -0.019118	   -0.090462	   -0.109580	   -0.007010	   -0.003530	   -0.010540	   -0.003509	   -0.004896	   -0.008405	   -0.000819	   -0.010020	   -0.010840	   -0.006067	    0.001978	   -0.004090	   -0.008695	    0.000004	   -0.008691	   -0.006171	   -0.004519	   -0.010690	   -0.072624	   -0.033131	   -0.105755
     3.750	0	0	    0	   -0.001238	   -0.001777	   -0.003015	    0.006724	   -0.008178	   -0.001454	   -0.005303	    0.004889	   -0.000414	    0.002971	   -0.007957	   -0.004986	    0.007389	   -0.013213	   -0.005824	   -0.025665	    0.024056	   -0.001608	    0.000603	    0.023584	    0.024188	    0.011243	   -0.004678	    0.006565	   -0.001801	   -0.009023	   -0.010823	   -0.009927	    0.015116	    0.005188	    0.002680	   -0.003263	   -0.000583	   -0.004625	   -0.003480	   -0.008105	   -0.003089	   -0.011370	   -0.014459	    0.000358	    0.017756	    0.018115	   -0.063391	   -0.074921	   -0.138312	    0.046537	   -0.001404	    0.045133	    0.006995	   -0.003837	    0.003158	    0.005379	   -0.002692	    0.002687	   -0.002723	    0.002743	    0.000020	    0.004815	    0.002276	    0.007092	    0.053639	    0.019440	    0.073079	   -0.008400	   -0.040708	   -0.049108
     3.825	0	0	    0	    0.005744	    0.004607	    0.010350	    0.005338	    0.002545	    0.007883	    0.001996	    0.007475	    0.009471	    0.004440	   -0.002276	    0.002164	    0.003479	   -0.013219	   -0.009740	   -0.035341	    0.035161	   -0.000180	   -0.034334	    0.053377	    0.019043	    0.031865	    0.026284	    0.058150	    0.002971	   -0.005090	   -0.002119	   -0.018707	    0.029755	    0.011048	    0.004276	   -0.001805	    0.002470	   -0.001859	   -0.001716	   -0.003574	    0.005665	   -0.018841	   -0.013176	    0.010505	    0.035609	    0.046114	   -0.060512	   -0.058702	   -0.119214	    0.047060	    0.047312	    0.094372	    0.013723	   -0.004164	    0.009559	    0.007580	   -0.003287	    0.004293	   -0.001091	    0.003637	    0.002546	    0.012888	    0.007609	    0.020497	    0.065268	    0.091118	    0.156386	   -0.040455	    0.022035	   -0.018421
     3.900	0	0	    0	    0.015761	    0.001481	    0.017242	    0.010790	    0.000493	    0.011282	   -0.000833	    0.014512	    0.013679	    0.008199	   -0.002547	    0.005652	    0.008443	   -0.020054	   -0.011611	   -0.021621	    0.019657	   -0.001964	   -0.056640	    0.022234	   -0.034407	    0.028693	    0.031092	    0.059785	    0.006643	   -0.005110	    0.001533	   -0.002387	    0.018095	    0.015708	    0.005769	   -0.001173	    0.004596	    0.000667	   -0.002575	   -0.001908	    0.008130	   -0.019769	   -0.011639	   -0.013287	    0.031336	    0.018049	   -0.073353	   -0.081964	   -0.155317	    0.030678	    0.042613	    0.073291	    0.008696	    0.002222	    0.010918	    0.001804	    0.001783	    0.003587	   -0.001425	    0.004127	    0.002702	    0.012701	    0.010755	    0.023455	    0.037292	    0.082633	    0.119925	   -0.083331	   -0.041835	   -0.125166
     3.975	0	0	    0	    0.014757	   -0.005939	    0.008818	    0.004838	    0.001153	    0.005991	    0.001663	    0.009202	    0.010865	    0.012373	   -0.008277	    0.004096	    0.010944	   -0.018804	   -0.007860	   -0.008992	    0.024379	    0.015387	   -0.050863	    0.010678	   -0.040185	    0.022638	    0.030101	    0.052739	    0.005570	   -0.003806	    0.001763	   -0.026297	    0.032184	    0.005888	    0.006863	   -0.002200	    0.004663	   -0.000099	   -0.002133	   -0.002232	    0.009423	   -0.014428	   -0.005005	   -0.014477	    0.030338	    0.015861	   -0.028584	   -0.051477	   -0.080060	    0.019994	    0.025112	    0.045107	    0.004874	    0.001528	    0.006402	    0.008101	   -0.008446	   -0.000345	   -0.001952	    0.003037	    0.001085	    0.006186	    0.008396	    0.014583	    0.012889	    0.046236	    0.059126	   -0.058728	   -0.081071	   -0.139798
     4.050	0	0	    0	    0.021057	   -0.014757	    0.006301	    0.006407	   -0.002153	    0.004254	    0.001905	    0.006717	    0.008622	    0.012372	   -0.007600	    0.004772	    0.016331	   -0.020632	   -0.004301	   -0.009543	    0.022581	    0.013038	   -0.013723	    0.017261	    0.003538	    0.019254	    0.003305	    0.022559	    0.008454	   -0.006145	    0.002308	   -0.004767	    0.009885	    0.005118	    0.007215	   -0.002072	    0.005142	    0.001185	   -0.004181	   -0.002995	    0.014079	   -0.015370	   -0.001291	   -0.007189	    0.012985	    0.005796	    0.006484	   -0.072052	   -0.065568	    0.016338	    0.007467	    0.023805	    0.015597	   -0.012970	    0.002627	    0.007752	   -0.004469	    0.003282	   -0.000950	    0.002440	    0.001490	    0.004048	    0.002748	    0.006796	    0.010584	    0.016056	    0.026640	   -0.012279	   -0.041055	   -0.053334
     4.125	0	0	    0	    0.015802	   -0.008971	    0.006830	    0.007176	   -0.000880	    0.006296	   -0.002739	    0.011620	    0.008881	    0.010701	   -0.006162	    0.004539	    0.016503	   -0.018592	   -0.002089	   -0.002645	    0.018154	    0.015508	   -0.013284	    0.041251	    0.027967	    0.013050	    0.001663	    0.014713	    0.005043	   -0.001186	    0.003857	    0.002023	    0.001662	    0.003684	    0.005728	   -0.001550	    0.004178	   -0.001125	   -0.002216	   -0.003342	    0.008120	   -0.006185	    0.001935	   -0.007544	    0.009461	    0.001917	    0.014312	   -0.064619	   -0.050307	    0.010894	    0.002949	    0.013843	    0.008531	   -0.005795	    0.002736	    0.011454	   -0.008972	    0.002483	   -0.000780	    0.001961	    0.001181	    0.001425	    0.002563	    0.003988	    0.004015	    0.012149	    0.016164	    0.013481	   -0.021238	   -0.007757
     4.200	0	0	    0	    0.014301	   -0.007077	    0.007224	    0.002341	    0.000189	    0.002530	   -0.003429	    0.007708	    0.004279	    0.011684	   -0.006505	    0.005179	    0.012813	   -0.014532	   -0.001720	   -0.000402	    0.012014	    0.011612	    0.011469	    0.004751	    0.016220	    0.009609	    0.002052	    0.011662	    0.005729	   -0.002079	    0.003650	   -0.005961	    0.002390	   -0.003571	    0.005456	   -0.001528	    0.003928	   -0.000139	   -0.003450	   -0.003589	    0.009125	   -0.005894	    0.003231	   -0.008570	    0.005396	   -0.003174	    0.002036	   -0.018044	   -0.016007	    0.007771	   -0.000978	    0.006794	    0.008745	   -0.005125	    0.003620	    0.008938	   -0.004662	    0.004275	   -0.002325	    0.002645	    0.000320	    0.000515	    0.000829	    0.001344	   -0.001468	    0.007311	    0.005843	    0.024354	   -0.010179	    0.014175
     4.275	0	0	    0	    0.012109	   -0.007709	    0.004400	    0.003247	   -0.002047	    0.001200	   -0.002403	    0.008592	    0.006188	    0.012457	   -0.006806	    0.005651	    0.004938	   -0.006756	   -0.001819	   -0.012774	    0.026619	    0.013844	   -0.019039	    0.039280	    0.020240	    0.004679	   -0.000262	    0.004417	    0.004764	   -0.002012	    0.002752	   -0.019470	    0.021723	    0.002253	    0.005204	   -0.000794	    0.004410	   -0.001374	   -0.003167	   -0.004541	    0.004890	   -0.002138	    0.002752	   -0.015847	    0.014868	   -0.000980	   -0.024676	    0.003517	   -0.021159	    0.003581	   -0.002594	    0.000987	    0.012120	   -0.013017	   -0.000897	    0.006474	   -0.003684	    0.002790	   -0.001838	    0.003102	    0.001264	   -0.001859	    0.001556	   -0.000303	   -0.005001	    0.004096	   -0.000905	   -0.015516	    0.018618	    0.003102
     4.350	0	0	    0	    0.010874	   -0.010394	    0.000480	    0.003785	   -0.005390	   -0.001604	   -0.010044	    0.014225	    0.004181	    0.006907	   -0.003830	    0.003077	    0.005068	   -0.011946	   -0.006878	   -0.017650	    0.025268	    0.007618	   -0.023150	    0.030169	    0.007019	    0.001607	    0.000774	    0.002381	   -0.000816	   -0.002042	   -0.002858	   -0.011772	    0.006180	   -0.005592	    0.003519	   -0.000334	    0.003185	   -0.002394	   -0.004087	   -0.006481	    0.004649	   -0.005722	   -0.001072	   -0.004351	   -0.001626	   -0.005976	   -0.009077	   -0.061200	   -0.070276	    0.013570	   -0.001403	    0.012167	    0.004565	   -0.006136	   -0.001572	    0.002215	   -0.002250	   -0.000034	   -0.003275	    0.004995	    0.001720	    0.001260	    0.001368	    0.002628	    0.008116	    0.007674	    0.015791	   -0.055982	   -0.040575	   -0.096558
     4.425	0	0	    0	    0.008268	    0.007471	    0.015739	    0.005791	   -0.003422	    0.002369	   -0.003347	    0.005031	    0.001684	    0.004498	   -0.003465	    0.001033	    0.003628	   -0.010657	   -0.007030	   -0.038301	    0.038864	    0.000563	   -0.006501	    0.029351	    0.022850	    0.022804	    0.004328	    0.027132	   -0.000682	   -0.005993	   -0.006675	   -0.007430	    0.002979	   -0.004451	    0.002109	   -0.000833	    0.001275	   -0.002275	   -0.002669	   -0.004943	    0.000473	   -0.011888	   -0.011416	    0.010354	    0.025355	    0.035709	   -0.032439	   -0.080796	   -0.113235	    0.044859	    0.021689	    0.066548	    0.009870	   -0.007931	    0.001939	    0.004001	   -0.006532	   -0.002531	   -0.003349	    0.004099	    0.000749	    0.007666	    0.004105	    0.011771	    0.059269	    0.040982	    0.100250	   -0.001458	   -0.016276	   -0.017734
     4.500	0	0	    0	    0.012524	    0.008170	    0.020693	    0.004304	   -0.000012	    0.004292	   -0.007443	    0.014434	    0.006991	    0.006358	   -0.003807	    0.002551	    0.007501	   -0.021041	   -0.013541	   -0.034196	    0.033770	   -0.000426	   -0.041034	    0.063135	    0.022101	    0.031804	    0.030691	    0.062495	    0.000386	   -0.006696	   -0.006310	   -0.025296	    0.036130	    0.010834	    0.001859	   -0.001227	    0.000632	   -0.002684	   -0.002367	   -0.005050	    0.000520	   -0.018983	   -0.018463	    0.004752	    0.042230	    0.046982	   -0.059028	   -0.047179	   -0.106207	    0.041600	    0.042813	    0.084413	    0.006968	   -0.000177	    0.006791	   -0.001666	    0.003720	    0.002055	   -0.004316	    0.004521	    0.000205	    0.006472	    0.006740	    0.013212	    0.050430	    0.089599	    0.140029	   -0.066656	    0.010917	   -0.055738
     4.575	0	0	    0	    0.003846	    0.013065	    0.016910	    0.003703	   -0.003946	   -0.000242	   -0.000846	    0.000623	   -0.000222	    0.005555	   -0.003686	    0.001869	    0.002507	   -0.018521	   -0.016014	   -0.016565	    0.013377	   -0.003188	   -0.051819	    0.011346	   -0.040473	    0.018754	    0.037790	    0.056544	   -0.002558	   -0.006040	   -0.008598	   -0.000430	   -0.003252	   -0.003682	    0.002089	   -0.002049	    0.000040	   -0.004318	   -0.001788	   -0.006105	   -0.003689	   -0.017720	   -0.021409	   -0.014468	    0.024391	    0.009923	   -0.065290	   -0.084014	   -0.149304	    0.022286	    0.032158	    0.054445	    0.013969	   -0.015354	   -0.001384	    0.001224	   -0.005160	   -0.003936	   -0.006223	    0.004369	   -0.001854	    0.002255	    0.007652	    0.009907	    0.017513	    0.069936	    0.087449	   -0.102079	   -0.063745	   -0.165824
     4.650	0	0	    0	    0.009132	   -0.000531	    0.008602	   -0.005067	    0.002088	   -0.002979	   -0.017759	    0.017423	   -0.000336	    0.006894	   -0.007164	   -0.000270	    0.005390	   -0.023268	   -0.017878	   -0.033269	    0.040636	    0.007367	   -0.077794	    0.054842	   -0.022953	    0.002147	    0.022758	    0.024905	   -0.003104	   -0.007479	   -0.010583	   -0.045238	    0.043500	   -0.001738	    0.000505	   -0.001925	   -0.001419	   -0.006619	   -0.003381	   -0.010000	    0.000751	   -0.020024	   -0.019274	   -0.033283	    0.040473	    0.007189	   -0.018728	   -0.057583	   -0.076311	    0.004332	    0.007446	    0.011778	    0.007740	   -0.016882	   -0.009143	    0.001163	   -0.006219	   -0.005057	   -0.008212	    0.003147	   -0.005065	   -0.006375	    0.002613	   -0.003762	   -0.012821	    0.035295	    0.022474	   -0.050092	   -0.076482	   -0.126574
     4.725	0	0	    0	    0.007282	   -0.000756	    0.006526	   -0.000640	   -0.002968	   -0.003608	   -0.005667	   -0.000177	   -0.005845	    0.001395	   -0.005524	   -0.004129	    0.003890	   -0.020270	   -0.016380	   -0.014813	    0.017644	    0.002831	   -0.016669	    0.007148	   -0.009522	   -0.005519	    0.006697	    0.001178	   -0.002817	   -0.006521	   -0.009337	   -0.019726	    0.010096	   -0.009630	   -0.001642	   -0.001537	   -0.003178	   -0.008417	   -0.003915	   -0.012332	    0.001058	   -0.013726	   -0.012668	   -0.023508	    0.006171	   -0.017337	   -0.023225	   -0.018733	   -0.041957	   -0.003536	   -0.001829	   -0.005365	    0.003236	   -0.011640	   -0.008405	   -0.004191	   -0.002730	   -0.006921	   -0.009532	    0.003104	   -0.006428	   -0.010445	   -0.000604	   -0.011049	   -0.020819	    0.011483	   -0.009336	   -0.027603	   -0.001687	   -0.029290
     4.800	0	0	    0	    0.002990	   -0.007125	   -0.004135	    0.000961	   -0.004536	   -0.003575	   -0.011426	    0.009534	   -0.001892	    0.001134	   -0.004310	   -0.003176	   -0.001916	   -0.014014	   -0.015929	   -0.006899	    0.016804	    0.009905	   -0.004441	    0.019122	    0.014681	   -0.006112	    0.000118	   -0.005994	   -0.004145	   -0.004198	   -0.008343	   -0.003138	   -0.009869	   -0.013008	    0.002544	   -0.003728	   -0.001184	   -0.009379	   -0.004155	   -0.013533	   -0.003154	   -0.008096	   -0.011250	   -0.020173	    0.013061	   -0.007112	   -0.033211	    0.019676	   -0.013535	   -0.007852	   -0.000539	   -0.008391	    0.007473	   -0.020979	   -0.013507	    0.003505	   -0.011482	   -0.007977	   -0.005370	    0.001285	   -0.004085	   -0.011129	   -0.000940	   -0.012069	   -0.017054	   -0.001274	   -0.018328	   -0.014172	    0.016037	    0.001865
     4.875	0	0	    0	    0.014499	   -0.009034	    0.005465	    0.004311	   -0.002679	    0.001632	   -0.005872	    0.010775	    0.004903	    0.005825	   -0.005589	    0.000236	    0.003646	   -0.014009	   -0.010363	   -0.020861	    0.033361	    0.012500	   -0.051042	    0.056904	    0.005862	    0.007722	   -0.005930	    0.001792	    0.001191	   -0.004668	   -0.003476	   -0.020775	    0.022830	    0.002055	    0.005170	   -0.002696	    0.002474	   -0.005072	   -0.005726	   -0.010798	    0.003165	   -0.006163	   -0.002997	   -0.008346	   -0.005522	   -0.013868	    0.001791	   -0.086179	   -0.084388	    0.017542	   -0.002727	    0.014816	    0.000764	    0.002255	    0.003019	    0.004916	   -0.002507	    0.002409	   -0.003096	    0.004596	    0.001500	   -0.000847	    0.001250	    0.000403	    0.004167	    0.006762	    0.010930	   -0.069775	   -0.030116	   -0.099891
     4.950	0	0	    0	    0.008155	    0.001563	    0.009717	    0.007604	    0.000631	    0.008235	    0.000444	    0.006800	    0.007244	    0.006696	   -0.004237	    0.002460	    0.004618	   -0.015759	   -0.011141	   -0.030144	    0.031886	    0.001742	   -0.005287	    0.025114	    0.019827	    0.024923	    0.003906	    0.028829	    0.002555	   -0.004230	   -0.001674	   -0.016148	    0.023043	    0.006895	    0.005182	   -0.002109	    0.003072	   -0.003626	   -0.003595	   -0.007221	    0.000561	   -0.007679	   -0.007119	    0.006932	    0.021926	    0.028858	   -0.061721	   -0.061378	   -0.123099	    0.042798	    0.018226	    0.061024	    0.014596	   -0.011572	    0.003023	    0.003883	   -0.002366	    0.001517	   -0.002423	    0.005044	    0.002621	    0.008617	    0.003203	    0.011820	    0.051178	    0.028658	    0.079836	   -0.012032	   -0.041034	   -0.053066
     5.025	0	0	    0	    0.018901	   -0.003395	    0.015505	    0.009631	    0.001015	    0.010646	    0.007504	    0.004975	    0.012480	    0.012415	   -0.007429	    0.004986	    0.004139	   -0.022781	   -0.018642	   -0.020954	    0.022940	    0.001986	   -0.025415	    0.057916	    0.032501	    0.041473	    0.022462	    0.063935	    0.004054	   -0.004866	   -0.000813	    0.006497	    0.010952	    0.017449	    0.005731	   -0.002595	    0.003136	   -0.001583	   -0.003641	   -0.005225	    0.004902	   -0.018551	   -0.013649	    0.015538	    0.042130	    0.057669	   -0.058760	   -0.047745	   -0.106506	    0.051771	    0.044426	    0.096197	    0.017427	   -0.007386	    0.010041	    0.008474	   -0.004476	    0.003997	   -0.002611	    0.005057	    0.002446	    0.011591	    0.007113	    0.018703	    0.063805	    0.090812	    0.154617	   -0.062471	    0.037927	   -0.024544
     5.100	0	0	    0	    0.006629	    0.012998	    0.019627	    0.007298	    0.001209	    0.008507	   -0.003435	    0.013790	    0.010355	    0.012500	   -0.007312	    0.005188	    0.006764	   -0.025005	   -0.018242	   -0.025944	    0.025851	   -0.000093	   -0.069652	    0.036808	   -0.032844	    0.037159	    0.030300	    0.067459	    0.004849	   -0.006218	   -0.001369	    0.000995	   -0.005294	   -0.004299	    0.005465	   -0.002559	    0.002906	   -0.002602	   -0.002259	   -0.004861	    0.003954	   -0.017392	   -0.013438	   -0.017925	    0.040052	    0.022127	   -0.073288	   -0.079019	   -0.152306	    0.034272	    0.045213	    0.079485	    0.013974	   -0.009477	    0.004497	    0.008704	   -0.007594	    0.001110	   -0.003511	    0.004595	    0.001084	    0.008393	    0.008939	    0.017332	    0.027782	    0.083563	    0.111345	   -0.090362	   -0.052234	   -0.142597
     5.175	0	0	    0	    0.017419	    0.003736	    0.021155	    0.006915	   -0.000775	    0.006140	    0.001238	    0.010172	    0.011410	    0.011329	   -0.004025	    0.007305	    0.008574	   -0.024015	   -0.015441	   -0.003487	    0.016688	    0.013201	   -0.031289	    0.010359	   -0.020930	    0.019756	    0.036888	    0.056644	    0.005268	   -0.006144	   -0.000876	   -0.002544	    0.009746	    0.007202	    0.005873	   -0.002470	    0.003403	   -0.003397	   -0.003474	   -0.006871	    0.008626	   -0.019635	   -0.011009	   -0.011984	    0.038158	    0.026175	   -0.010957	   -0.050807	   -0.061764	    0.019098	    0.025772	    0.044870	    0.019137	   -0.017373	    0.001764	    0.002243	   -0.001996	    0.000248	   -0.003822	    0.003420	   -0.000402	    0.001242	    0.006322	    0.007564	    0.002997	    0.046706	    0.049703	   -0.047054	   -0.075580	   -0.122634
     5.250	0	0	    0	    0.009985	   -0.001619	    0.008367	    0.006094	   -0.002665	    0.003429	   -0.004861	    0.010370	    0.005509	    0.010147	   -0.006136	    0.004011	    0.010591	   -0.023326	   -0.012735	   -0.006185	    0.019223	    0.013038	   -0.026683	    0.043553	    0.016870	    0.012818	    0.010722	    0.023540	    0.003518	   -0.002593	    0.000925	   -0.006541	    0.008585	    0.002044	    0.004260	   -0.002406	    0.001855	   -0.003345	   -0.004263	   -0.007607	    0.004560	   -0.005352	   -0.000792	   -0.014180	    0.017231	    0.003051	   -0.004716	   -0.039220	   -0.043936	    0.008296	    0.011797	    0.020093	    0.000040	    0.001792	    0.001832	    0.000300	    0.001272	    0.001572	   -0.004107	    0.002731	   -0.001377	   -0.002237	    0.003561	    0.001324	   -0.003043	    0.016873	    0.013830	   -0.014852	   -0.002425	   -0.017277
     5.325	0	0	    0	    0.009340	   -0.000798	    0.008542	    0.001153	    0.002794	    0.003947	   -0.011752	    0.020236	    0.008484	    0.008675	   -0.002924	    0.005751	    0.007989	   -0.017291	   -0.009302	   -0.008530	    0.027149	    0.018619	   -0.023194	    0.048630	    0.025435	    0.008657	    0.004318	    0.012976	    0.001919	   -0.000302	    0.001616	   -0.022607	    0.029961	    0.007354	    0.003090	   -0.002669	    0.000421	   -0.003994	   -0.004282	   -0.008276	    0.005306	   -0.003137	    0.002169	   -0.022954	    0.024239	    0.001285	   -0.012570	    0.000388	   -0.012182	    0.002664	    0.005940	    0.008604	    0.004600	   -0.005358	   -0.000758	    0.005377	   -0.004615	    0.000762	   -0.004899	    0.002440	   -0.002459	   -0.003540	    0.001326	   -0.002214	   -0.008842	    0.007517	   -0.001325	    0.004310	   -0.000752	    0.003558
     5.400	0	0	    0	    0.007487	   -0.002723	    0.004764	    0.002201	    0.001036	    0.003236	   -0.003930	    0.009204	    0.005274	    0.007370	   -0.003969	    0.003401	    0.005822	   -0.017313	   -0.011491	   -0.010750	    0.023250	    0.012499	   -0.002776	    0.024561	    0.021785	    0.000128	    0.006190	    0.006318	    0.002569	   -0.002449	    0.000119	   -0.018774	    0.020710	    0.001936	    0.002704	   -0.004043	   -0.001339	   -0.005301	   -0.002936	   -0.008237	    0.003194	   -0.003186	    0.000008	   -0.022266	    0.021015	   -0.001251	    0.001435	    0.000004	    0.001439	   -0.002162	    0.002833	    0.000671	    0.007999	   -0.005566	    0.002433	    0.006385	   -0.005573	    0.000812	   -0.005150	    0.002313	   -0.002837	   -0.004483	    0.000915	   -0.003568	   -0.014252	    0.005286	   -0.008966	    0.000560	    0.013555	    0.014116
     5.475	0	0	    0	    0.005543	   -0.005336	    0.000207	   -0.001526	    0.001451	   -0.000075	   -0.014597	    0.016051	    0.001453	    0.006203	   -0.005398	    0.000804	    0.003243	   -0.013489	   -0.010246	   -0.015532	    0.024252	    0.008721	   -0.036082	    0.051892	    0.015809	   -0.002564	    0.005026	    0.002462	    0.000307	   -0.002363	   -0.002056	   -0.046675	    0.044766	   -0.001909	   -0.000024	   -0.002402	   -0.002426	   -0.005433	   -0.003715	   -0.009148	   -0.000166	   -0.000778	   -0.000944	   -0.020386	    0.014430	   -0.005956	    0.018074	    0.000377	    0.018451	   -0.004836	    0.002605	   -0.002230	    0.002346	   -0.003860	   -0.001514	    0.003917	   -0.004034	   -0.000117	   -0.006179	    0.003126	   -0.003053	   -0.006093	    0.001331	   -0.004762	   -0.015615	    0.000575	   -0.015040	   -0.011031	    0.030601	    0.019570
     5.550	0	0	    0	    0.009545	   -0.002771	    0.006774	   -0.001697	    0.000340	   -0.001357	   -0.010614	    0.011509	    0.000895	    0.007312	   -0.006802	    0.000510	    0.005987	   -0.014777	   -0.008791	   -0.017255	    0.026403	    0.009148	   -0.019007	    0.044781	    0.025774	    0.001920	    0.000031	    0.001951	    0.002570	   -0.004327	   -0.001757	   -0.015592	    0.021494	    0.005902	    0.000238	   -0.002436	   -0.002198	   -0.006752	   -0.002571	   -0.009322	    0.003592	   -0.007982	   -0.004390	   -0.034230	    0.026412	   -0.007818	   -0.045789	    0.020566	   -0.025223	    0.002217	   -0.005550	   -0.003332	    0.012232	   -0.014075	   -0.001843	   -0.000290	   -0.000437	   -0.000727	   -0.005401	    0.002787	   -0.002614	   -0.005399	   -0.000608	   -0.006006	   -0.016744	   -0.000793	   -0.017537	   -0.040553	    0.022791	   -0.017762
     5.625	0	0	    0	    0.021827	   -0.012297	    0.009530	   -0.000141	   -0.002926	   -0.003068	   -0.006812	    0.003373	   -0.003439	    0.000503	   -0.002187	   -0.001684	    0.007893	   -0.015519	   -0.007626	   -0.018198	    0.028410	    0.010212	   -0.017901	    0.013831	   -0.004070	    0.006584	   -0.008698	   -0.002113	   -0.002252	   -0.005175	   -0.007427	    0.010103	   -0.017621	   -0.007519	   -0.000279	   -0.002315	   -0.002594	   -0.007041	   -0.003563	   -0.010605	    0.000001	   -0.005174	   -0.005173	   -0.007181	   -0.008955	   -0.016136	   -0.016429	   -0.071450	   -0.087879	    0.011602	   -0.000818	    0.010784	    0.012257	   -0.019090	   -0.006833	    0.001091	   -0.002907	   -0.001816	   -0.006079	    0.003896	   -0.002184	   -0.003730	    0.000979	   -0.002751	   -0.002940	    0.005077	    0.002137	   -0.057214	   -0.060536	   -0.117749
     5.700	0	0	    0	    0.027283	   -0.013109	    0.014174	    0.000794	   -0.001887	   -0.001093	   -0.007906	    0.005153	   -0.002753	    0.004377	   -0.006643	   -0.002265	    0.011108	   -0.022310	   -0.011202	   -0.034786	    0.034530	   -0.000256	   -0.013674	    0.032596	    0.018922	    0.026563	    0.004073	    0.030636	   -0.007584	   -0.003927	   -0.011511	   -0.010818	    0.001862	   -0.008956	   -0.001776	   -0.002616	   -0.004392	   -0.006735	   -0.003336	   -0.010071	   -0.010145	   -0.009413	   -0.019558	   -0.004617	    0.027979	    0.023362	   -0.053461	   -0.079478	   -0.132939	    0.036387	    0.029294	    0.065681	    0.005274	   -0.006177	   -0.000903	    0.001618	   -0.006402	   -0.004784	   -0.008211	    0.004313	   -0.003898	    0.000027	    0.004563	    0.004590	    0.046634	    0.049792	    0.096426	   -0.024092	   -0.006423	   -0.030515
     5.775	0	0	    0	    0.014298	    0.000706	    0.015004	   -0.001897	    0.000813	   -0.001084	   -0.011416	    0.007405	   -0.004011	    0.004219	   -0.007105	   -0.002886	    0.000103	   -0.016015	   -0.015913	   -0.028736	    0.028555	   -0.000181	   -0.059243	    0.058161	   -0.001083	    0.026080	    0.031223	    0.057303	   -0.005732	   -0.007545	   -0.013277	   -0.012518	    0.005750	   -0.006768	   -0.002273	   -0.002879	   -0.005152	   -0.008020	   -0.002135	   -0.010155	   -0.008092	   -0.016090	   -0.024181	   -0.010645	    0.041598	    0.030953	   -0.094488	   -0.053025	   -0.147514	    0.025039	    0.051891	    0.076931	    0.004857	   -0.003415	    0.001442	    0.001019	   -0.002886	   -0.001867	   -0.008788	    0.004419	   -0.004369	    0.000044	    0.005992	    0.006035	    0.028274	    0.089472	    0.117746	   -0.087660	    0.002365	   -0.085294
     5.850	0	0	    0	   -0.001637	    0.012245	    0.010607	    0.000073	    0.000119	    0.000193	   -0.009082	    0.007468	   -0.001614	   -0.000271	   -0.002312	   -0.002583	   -0.006461	   -0.012041	   -0.018502	   -0.027528	    0.034304	    0.006775	   -0.111122	    0.042610	   -0.068511	    0.011679	    0.037406	    0.049084	   -0.000982	   -0.008876	   -0.009858	   -0.033005	    0.034974	    0.001970	    0.001744	   -0.003228	   -0.001484	   -0.009016	   -0.001813	   -0.010828	   -0.001548	   -0.019641	   -0.021188	   -0.022810	    0.033309	    0.010499	   -0.068250	   -0.084507	   -0.152758	    0.015020	    0.032458	    0.047478	    0.008593	   -0.004525	    0.004068	   -0.002182	    0.001146	   -0.001036	   -0.006416	    0.004183	   -0.002233	    0.000501	    0.007120	    0.007621	    0.013232	    0.064817	    0.078049	   -0.083656	   -0.057555	   -0.141211
     5.925	0	0	    0	    0.004638	    0.009455	    0.014094	    0.004364	    0.000360	    0.004724	   -0.003592	    0.007487	    0.003895	    0.005610	   -0.004871	    0.000739	    0.004281	   -0.020779	   -0.016499	   -0.013766	    0.027016	    0.013250	   -0.031882	    0.026099	   -0.005783	    0.007522	    0.024113	    0.031635	    0.003116	   -0.005325	   -0.002209	   -0.006540	    0.010075	    0.003536	    0.003685	   -0.002163	    0.001522	   -0.005818	   -0.004389	   -0.010207	    0.009202	   -0.019049	   -0.009847	   -0.014012	    0.023319	    0.009308	   -0.009353	   -0.067804	   -0.077158	    0.012225	    0.011544	    0.023769	    0.011971	   -0.012422	   -0.000451	    0.005484	   -0.004385	    0.001099	   -0.004085	    0.003630	   -0.000455	    0.001528	    0.002455	    0.003983	    0.001734	    0.026372	    0.028106	   -0.003587	   -0.054672	   -0.058259
     6.000	0	0	    0	    0.004178	   -0.001064	    0.003114	    0.007249	   -0.002096	    0.005153	   -0.002146	    0.007410	    0.005264	    0.005745	   -0.001911	    0.003834	    0.001926	   -0.013990	   -0.012065	   -0.011635	    0.021053	    0.009418	   -0.011751	    0.018448	    0.006696	    0.007479	    0.005485	    0.012964	    0.003668	   -0.001118	    0.002550	   -0.005814	    0.009040	    0.003226	    0.004629	   -0.002720	    0.001909	   -0.004400	   -0.003982	   -0.008382	    0.011849	   -0.012553	   -0.000704	   -0.014278	    0.012078	   -0.002200	    0.005543	   -0.031694	   -0.026151	    0.011011	    0.003511	    0.014522	    0.013828	   -0.011991	    0.001837	    0.007783	   -0.007225	    0.000558	   -0.003222	    0.003040	   -0.000182	    0.001333	    0.001782	    0.003115	    0.002266	    0.012825	    0.015090	    0.004402	    0.008894	    0.013297
     6.075	0	0	    0	    0.009969	   -0.005003	    0.004966	    0.002304	    0.002032	    0.004337	   -0.011182	    0.016505	    0.005324	    0.009419	   -0.005214	    0.004205	    0.004618	   -0.015759	   -0.011141	   -0.014494	    0.018055	    0.003561	   -0.039379	    0.064736	    0.025357	    0.004846	    0.005946	    0.010792	    0.004629	   -0.001440	    0.003189	   -0.016130	    0.007927	   -0.008202	    0.004165	   -0.003645	    0.000519	   -0.004537	   -0.002960	   -0.007496	    0.007865	   -0.007421	    0.000444	   -0.014998	    0.024047	    0.009049	    0.018573	   -0.002834	    0.015739	    0.003500	    0.000040	    0.003540	    0.016789	   -0.021626	   -0.004837	    0.012582	   -0.012424	    0.000157	   -0.003748	    0.002857	   -0.000891	    0.002347	   -0.000417	    0.001930	   -0.001861	    0.006607	    0.004746	    0.015721	    0.032362	    0.048082
     6.150	0	0	    0	    0.008551	   -0.005762	    0.002789	    0.000993	    0.001423	    0.002417	   -0.008017	    0.012559	    0.004542	    0.009167	   -0.005794	    0.003373	    0.004513	   -0.013983	   -0.009470	   -0.006381	    0.011213	    0.004832	    0.006643	    0.018306	    0.024948	    0.004299	    0.008063	    0.012362	    0.005303	   -0.001721	    0.003582	   -0.007453	    0.015999	    0.008546	    0.004027	   -0.003238	    0.000789	   -0.004222	   -0.002944	   -0.007166	    0.005236	   -0.005945	   -0.000709	   -0.014162	    0.016681	    0.002519	    0.027748	   -0.010252	    0.017497	    0.003278	    0.002706	    0.005984	    0.007869	   -0.004480	    0.003389	    0.007005	   -0.003891	    0.003114	   -0.002628	    0.002226	   -0.000401	    0.000997	    0.000812	    0.001809	   -0.003347	    0.003224	   -0.000124	    0.022753	    0.020661	    0.043414
     6.225	0	0	    0	    0.025948	   -0.018372	    0.007576	    0.001623	    0.000872	    0.002495	   -0.010893	    0.013997	    0.003104	    0.010924	   -0.007790	    0.003134	    0.011549	   -0.022350	   -0.010801	   -0.022497	    0.027211	    0.004714	   -0.021481	    0.039043	    0.017563	    0.008721	   -0.003617	    0.005104	    0.004239	   -0.000767	    0.003472	   -0.012902	    0.016880	    0.003978	    0.004466	   -0.003387	    0.001079	   -0.002820	   -0.005442	   -0.008262	    0.006772	   -0.008837	   -0.002065	   -0.023259	    0.013871	   -0.009388	   -0.012232	   -0.057803	   -0.070035	    0.010528	   -0.000227	    0.010301	    0.007383	   -0.003471	    0.003912	    0.005247	   -0.003744	    0.001503	   -0.003339	    0.003879	    0.000540	    0.003675	   -0.000288	    0.003386	    0.008067	    0.004619	    0.012687	   -0.044938	    0.015235	   -0.029704
     6.300	0	0	    0	    0.027098	   -0.015503	    0.011595	    0.000574	    0.000163	    0.000737	   -0.010463	    0.013030	    0.002568	    0.005120	   -0.002689	    0.002431	    0.006881	   -0.010896	   -0.004015	   -0.027743	    0.030530	    0.002787	   -0.028327	    0.050968	    0.022641	    0.022032	   -0.007207	    0.014826	   -0.002418	    0.001439	   -0.000979	   -0.036113	    0.048489	    0.012375	    0.001901	   -0.001974	   -0.000073	   -0.004424	   -0.002167	   -0.006591	    0.001233	   -0.006109	   -0.004876	   -0.006451	    0.028372	    0.021920	   -0.047151	   -0.044312	   -0.091463	    0.023825	    0.011310	    0.035134	    0.008439	    0.000234	    0.008672	    0.006511	   -0.002032	    0.004480	   -0.003640	    0.004800	    0.001160	    0.008321	    0.002274	    0.010594	    0.034427	    0.018335	    0.052761	   -0.013608	   -0.046869	   -0.060477
     6.375	0	0	    0	    0.018773	   -0.004100	    0.014673	    0.005576	   -0.002457	    0.003119	   -0.008683	    0.011241	    0.002558	    0.006799	   -0.005482	    0.001317	    0.006474	   -0.020282	   -0.013808	   -0.032212	    0.023313	   -0.008899	   -0.011720	    0.041522	    0.029802	    0.037663	    0.016961	    0.054624	   -0.002417	   -0.002645	   -0.005062	   -0.007858	    0.005862	   -0.001995	    0.002782	   -0.004030	   -0.001248	   -0.002694	   -0.001941	   -0.004635	   -0.001900	   -0.015043	   -0.016943	    0.018945	    0.035185	    0.054129	   -0.033718	   -0.067887	   -0.101604	    0.043973	    0.047998	    0.091972	    0.002205	    0.002678	    0.004884	    0.009226	   -0.010260	   -0.001034	   -0.003666	    0.003948	    0.000282	    0.010668	    0.008446	    0.019114	    0.066944	    0.079487	    0.146431	   -0.002835	    0.015690	    0.012855
     6.450	0	0	    0	    0.017877	    0.004920	    0.022797	    0.006426	   -0.001314	    0.005112	   -0.000631	    0.001237	    0.000606	    0.008886	   -0.007899	    0.000987	    0.010028	   -0.019312	   -0.009284	   -0.030276	    0.024863	   -0.005414	   -0.063056	    0.059689	   -0.003367	    0.034698	    0.037140	    0.071838	   -0.002143	   -0.003017	   -0.005160	   -0.005316	    0.007575	    0.002259	    0.002483	   -0.004220	   -0.001737	   -0.002843	   -0.001954	   -0.004797	   -0.001663	   -0.016093	   -0.017756	    0.000080	    0.035444	    0.035524	   -0.063287	   -0.085717	   -0.149004	    0.033643	    0.051751	    0.085394	    0.011351	   -0.003912	    0.007440	    0.009119	   -0.010490	   -0.001371	   -0.004733	    0.004084	   -0.000649	    0.009633	    0.008811	    0.018444	    0.037657	    0.090831	    0.128488	   -0.076479	   -0.028148	   -0.104627
     6.525	0	0	    0	    0.021645	   -0.010340	    0.011306	   -0.003177	    0.001326	   -0.001851	   -0.015012	    0.011475	   -0.003537	    0.006562	   -0.007855	   -0.001293	    0.008705	   -0.028035	   -0.019330	   -0.034358	    0.025976	   -0.008382	   -0.093160	    0.046353	   -0.046807	    0.022638	    0.030101	    0.052739	   -0.003608	   -0.004258	   -0.007866	   -0.035343	    0.033082	   -0.002260	    0.000277	   -0.003218	   -0.002941	   -0.003338	   -0.003014	   -0.006352	    0.000267	   -0.020160	   -0.019893	   -0.026308	    0.039247	    0.012939	   -0.041534	   -0.061916	   -0.103449	    0.007237	    0.033129	    0.040366	    0.003882	   -0.005313	   -0.001431	    0.001128	   -0.004568	   -0.003439	   -0.007397	    0.003269	   -0.004128	   -0.000524	    0.010064	    0.009540	    0.001421	    0.056730	    0.058151	   -0.074372	   -0.088828	   -0.163200
     6.600	0	0	    0	    0.007604	    0.003114	    0.010718	   -0.003739	   -0.000208	   -0.003947	   -0.015506	    0.011227	   -0.004279	    0.004193	   -0.005078	   -0.000885	    0.002668	   -0.016007	   -0.013340	   -0.018634	    0.017566	   -0.001068	   -0.024334	    0.017942	   -0.006393	    0.005105	    0.015056	    0.020161	   -0.006540	   -0.002684	   -0.009224	   -0.014029	    0.013999	   -0.000030	   -0.000125	   -0.003240	   -0.003365	   -0.006973	   -0.002410	   -0.009383	    0.000716	   -0.016018	   -0.015302	   -0.018556	    0.011664	   -0.006893	   -0.006822	   -0.070294	   -0.077115	   -0.000091	    0.011868	    0.011777	    0.004087	   -0.008720	   -0.004633	    0.003088	   -0.004257	   -0.001169	   -0.007278	    0.002319	   -0.004959	   -0.002808	    0.002190	   -0.000618	   -0.009190	    0.016437	    0.007246	   -0.009376	   -0.051668	   -0.061044
     6.675	0	0	    0	    0.008889	   -0.008680	    0.000210	   -0.001816	   -0.002833	   -0.004649	   -0.008255	    0.000932	   -0.007323	    0.004364	   -0.008832	   -0.004469	    0.009685	   -0.021034	   -0.011349	   -0.022480	    0.014342	   -0.008138	   -0.010182	    0.012684	    0.002502	   -0.000125	   -0.003955	   -0.004081	   -0.006932	   -0.001597	   -0.008529	   -0.025223	    0.017192	   -0.008031	   -0.003080	   -0.002489	   -0.005569	   -0.007226	   -0.003555	   -0.010781	   -0.004260	   -0.009968	   -0.014228	   -0.026527	    0.010316	   -0.016211	   -0.027882	   -0.016847	   -0.044730	   -0.011793	    0.004965	   -0.006828	   -0.005548	    0.003441	   -0.002107	    0.000708	   -0.006037	   -0.005329	   -0.009035	    0.002761	   -0.006274	   -0.007394	    0.002347	   -0.005046	   -0.017302	    0.009603	   -0.007699	   -0.016682	    0.004193	   -0.012489
     6.750	0	0	    0	    0.004178	   -0.001064	    0.003114	   -0.002989	   -0.000266	   -0.003254	   -0.014674	    0.010614	   -0.004060	   -0.000732	   -0.004153	   -0.004885	    0.002187	   -0.013224	   -0.011038	   -0.015809	    0.009214	   -0.006595	   -0.024665	    0.042744	    0.018078	   -0.009646	   -0.002261	   -0.011908	   -0.006540	   -0.002684	   -0.009224	   -0.040954	    0.040341	   -0.000613	   -0.003125	   -0.002822	   -0.005946	   -0.008856	   -0.002845	   -0.011700	   -0.006099	   -0.009440	   -0.015538	   -0.034499	    0.016017	   -0.018483	   -0.020732	    0.000792	   -0.019940	   -0.013064	   -0.003727	   -0.016791	   -0.003155	    0.001359	   -0.001796	    0.001238	   -0.004341	   -0.003103	   -0.009373	    0.002731	   -0.006641	   -0.008320	   -0.000022	   -0.008343	   -0.022534	    0.003006	   -0.019529	   -0.000224	   -0.008545	   -0.008769
     6.825	0	0	    0	    0.006497	   -0.009043	   -0.002545	   -0.001407	   -0.002661	   -0.004068	   -0.018965	    0.007173	   -0.011792	    0.000202	   -0.005333	   -0.005131	    0.000131	   -0.011705	   -0.011574	   -0.022065	    0.012249	   -0.009816	   -0.025181	    0.017926	   -0.007256	   -0.014156	   -0.003999	   -0.018155	   -0.002657	   -0.003485	   -0.006142	   -0.023733	   -0.000900	   -0.024633	   -0.000799	   -0.002207	   -0.003007	   -0.010086	   -0.002222	   -0.012308	   -0.006213	   -0.011033	   -0.017246	   -0.040096	    0.011667	   -0.028428	   -0.044232	    0.004418	   -0.039814	   -0.013044	   -0.008747	   -0.021791	    0.006706	   -0.019148	   -0.012442	   -0.008657	   -0.002333	   -0.010990	   -0.008369	    0.003038	   -0.005331	   -0.011380	   -0.001057	   -0.012437	   -0.024827	   -0.003104	   -0.027931	   -0.030942	    0.002469	   -0.028473
     6.900	0	0	    0	   -0.008265	    0.001302	   -0.006963	   -0.001489	   -0.001501	   -0.002990	   -0.014699	    0.003923	   -0.010775	   -0.000706	   -0.002861	   -0.003567	    0.002264	   -0.015996	   -0.013732	   -0.027911	    0.024295	   -0.003617	   -0.025627	    0.006195	   -0.019432	   -0.018435	   -0.005633	   -0.024068	   -0.004679	    0.001015	   -0.003664	   -0.018231	    0.010942	   -0.007288	    0.000562	   -0.001403	   -0.000841	   -0.011049	   -0.000181	   -0.011230	   -0.010962	   -0.010237	   -0.021198	   -0.020108	   -0.014005	   -0.034113	   -0.018846	   -0.087431	   -0.106277	   -0.005018	   -0.006951	   -0.011969	    0.003880	   -0.012920	   -0.009040	    0.002074	   -0.006585	   -0.004511	   -0.007701	    0.005037	   -0.002664	   -0.009966	   -0.001169	   -0.011135	   -0.005723	   -0.000306	   -0.006029	   -0.059109	   -0.050876	   -0.109986
     6.975	0	0	    0	    0.012675	   -0.005875	    0.006800	    0.009189	   -0.003176	    0.006014	    0.001058	   -0.003028	   -0.001970	    0.003588	   -0.004316	   -0.000728	    0.002447	   -0.012457	   -0.010009	   -0.024291	    0.013480	   -0.010811	    0.011562	   -0.003956	    0.007605	    0.015712	   -0.001347	    0.014365	    0.002023	   -0.002132	   -0.000109	   -0.001907	   -0.002660	   -0.004567	    0.001911	   -0.000784	    0.001127	   -0.006512	   -0.002248	   -0.008760	   -0.003462	   -0.015731	   -0.019194	    0.006491	    0.010257	    0.016749	   -0.075162	   -0.071357	   -0.146519	    0.039602	    0.021463	    0.061065	    0.011549	   -0.010475	    0.001074	   -0.005291	    0.004587	   -0.000704	   -0.004451	    0.005634	    0.001183	    0.006305	    0.000965	    0.007271	    0.060678	    0.035480	    0.096158	   -0.007447	   -0.027401	   -0.034848
     7.050	0	0	    0	    0.006757	    0.015489	    0.022246	    0.012294	   -0.001612	    0.010682	   -0.001631	    0.010666	    0.009036	    0.005308	   -0.000909	    0.004398	    0.006285	   -0.016768	   -0.010483	   -0.027411	    0.023714	   -0.003698	   -0.023926	    0.047018	    0.023092	    0.022023	    0.032430	    0.054453	    0.004487	   -0.001636	    0.002851	   -0.024818	    0.043918	    0.019100	    0.005399	   -0.002437	    0.002962	   -0.002972	   -0.001482	   -0.004454	    0.004083	   -0.021913	   -0.017830	    0.005232	    0.033611	    0.038843	   -0.069567	   -0.062627	   -0.132194	    0.044880	    0.045095	    0.089975	    0.019674	   -0.010204	    0.009470	    0.011314	   -0.006442	    0.004872	   -0.001607	    0.004459	    0.002851	    0.012030	    0.005844	    0.017874	    0.059906	    0.090901	    0.150807	   -0.064825	    0.005473	   -0.059352
     7.125	0	0	    0	    0.004390	    0.015830	    0.020220	    0.005185	    0.004759	    0.009944	   -0.006994	    0.011292	    0.004298	    0.006925	   -0.002285	    0.004640	    0.001936	   -0.010150	   -0.008214	   -0.029285	    0.036483	    0.007199	   -0.103911	    0.065326	   -0.038584	    0.018379	    0.037424	    0.055803	    0.007610	   -0.003635	    0.003975	   -0.026441	    0.043062	    0.016621	    0.005596	   -0.002528	    0.003068	   -0.002502	   -0.000691	   -0.003193	    0.005730	   -0.018379	   -0.012649	   -0.017488	    0.027718	    0.010230	   -0.071723	   -0.087224	   -0.158947	    0.025255	    0.037148	    0.062403	    0.011305	   -0.001035	    0.010269	    0.007493	   -0.003255	    0.004238	   -0.002622	    0.004789	    0.002167	    0.010987	    0.008446	    0.019433	    0.032569	    0.070162	    0.102732	   -0.078288	   -0.064588	   -0.142876
     7.200	0	0	    0	   -0.046757	    0.140456	    0.093699	    0.005605	    0.003541	    0.009145	   -0.007860	    0.014089	    0.006229	   -0.005617	    0.028412	    0.022795	   -0.011565	    0.047838	    0.036272	   -0.015941	    0.031389	    0.015447	   -0.038189	    0.035300	   -0.002889	   -0.021573	    0.092297	    0.070724	    0.004920	    0.004234	    0.009153	   -0.027886	    0.045148	    0.017262	    0.004460	   -0.001400	    0.003060	   -0.001358	    0.006669	    0.005311	    0.007237	   -0.008519	   -0.001282	   -0.015641	    0.039136	    0.023495	   -0.020915	   -0.052737	   -0.073652	    0.009917	    0.023211	    0.033128	   -0.007262	    0.026932	    0.019670	    0.003718	   -0.001746	    0.001971	   -0.003145	    0.004671	    0.001526	    0.001076	    0.010544	    0.011620	    0.003252	    0.043550	    0.046801	   -0.020473	   -0.053208	   -0.073681
     7.275	0	0	    0	    0.008262	   -0.001137	    0.007124	    0.008327	   -0.001400	    0.006928	   -0.003923	    0.010501	    0.006577	    0.007295	   -0.001404	    0.005891	    0.009814	   -0.016266	   -0.006452	   -0.004316	    0.013583	    0.009267	   -0.018652	    0.028881	    0.010229	    0.006706	    0.005386	    0.012093	    0.009163	   -0.002410	    0.006753	   -0.011686	    0.019753	    0.008067	    0.003856	   -0.001893	    0.001963	   -0.003837	   -0.000164	   -0.004001	    0.013446	   -0.015783	   -0.002337	   -0.011344	    0.013699	    0.002354	   -0.011495	   -0.019719	   -0.031214	    0.007583	    0.003716	    0.011299	    0.015711	   -0.016636	   -0.000925	    0.006491	   -0.002858	    0.003633	   -0.003210	    0.003674	    0.000464	    0.002999	   -0.001173	    0.001826	    0.001190	    0.014522	    0.015712	    0.005720	    0.015160	    0.020880
     7.350	0	0	    0	    0.008665	   -0.005061	    0.003604	    0.003257	    0.001747	    0.005003	   -0.013385	    0.017959	    0.004574	    0.006972	   -0.002794	    0.004179	    0.003558	   -0.007839	   -0.004282	   -0.015103	    0.022083	    0.006980	   -0.044957	    0.075250	    0.030293	    0.002659	    0.002626	    0.005285	    0.003941	    0.003434	    0.007375	   -0.015865	    0.018068	    0.002203	    0.003047	   -0.001896	    0.001151	   -0.002535	   -0.001381	   -0.003915	    0.004750	   -0.003088	    0.001662	   -0.025524	    0.031797	    0.006273	    0.017136	   -0.005246	    0.011890	   -0.001339	    0.005581	    0.004242	    0.004513	   -0.007399	   -0.002886	    0.006531	   -0.008090	   -0.001559	   -0.003087	    0.003035	   -0.000052	   -0.000678	    0.001675	    0.000996	   -0.003570	    0.006485	    0.002915	    0.017774	    0.014026	    0.031800
     7.425	0	0	    0	    0.006536	   -0.007409	   -0.000874	    0.001496	    0.001468	    0.002964	   -0.009005	    0.009508	    0.000503	    0.003393	   -0.000506	    0.002887	    0.002378	   -0.009658	   -0.007280	   -0.017577	    0.022710	    0.005133	   -0.010481	    0.028878	    0.018398	   -0.004792	    0.004645	   -0.000148	    0.007918	   -0.001448	    0.006469	   -0.026618	    0.028124	    0.001506	    0.002784	   -0.002354	    0.000430	   -0.004395	   -0.001136	   -0.005531	    0.008877	   -0.008791	    0.000086	   -0.020564	    0.021754	    0.001189	   -0.019158	    0.017125	   -0.002032	    0.003053	   -0.001769	    0.001284	    0.017806	   -0.018340	   -0.000534	    0.004376	   -0.004218	    0.000158	   -0.002691	    0.002570	   -0.000121	    0.000911	   -0.001682	   -0.000771	   -0.005936	    0.002763	   -0.003172	   -0.005586	    0.028984	    0.023398
     7.500	0	0	    0	    0.015632	   -0.012976	    0.002656	    0.003592	   -0.003604	   -0.000011	   -0.002871	    0.002287	   -0.000584	    0.007317	   -0.006358	    0.000959	    0.012792	   -0.017789	   -0.004997	   -0.002657	    0.004939	    0.002282	    0.003306	    0.006081	    0.009388	    0.004229	   -0.006023	   -0.001794	    0.000975	    0.003190	    0.004165	   -0.006205	   -0.005535	   -0.011740	    0.001805	   -0.001642	    0.000163	   -0.004307	   -0.002213	   -0.006519	    0.001105	   -0.001745	   -0.000640	   -0.010893	   -0.003084	   -0.013977	   -0.022720	   -0.061655	   -0.084375	    0.006126	   -0.000316	    0.005810	    0.010197	   -0.011923	   -0.001725	    0.003061	   -0.006976	   -0.003914	   -0.003913	    0.004255	    0.000342	    0.000650	   -0.001076	   -0.000427	    0.000322	    0.004587	    0.004909	   -0.065218	    0.002001	   -0.063217
     7.575	0	0	    0	    0.018766	   -0.010124	    0.008641	    0.002476	    0.000680	    0.003155	   -0.008320	    0.010366	    0.002046	    0.005918	   -0.006151	   -0.000234	    0.009719	   -0.014485	   -0.004766	   -0.033231	    0.033383	    0.000152	   -0.036252	    0.065906	    0.029654	    0.018855	   -0.003522	    0.015333	   -0.003754	    0.000037	   -0.003717	   -0.023812	    0.024924	    0.001112	    0.001600	   -0.002206	   -0.000606	   -0.002888	   -0.002216	   -0.005103	   -0.001928	   -0.007411	   -0.009338	   -0.009007	    0.028943	    0.019935	   -0.053696	   -0.073615	   -0.127310	    0.037652	    0.011536	    0.049188	    0.008468	   -0.007060	    0.001408	    0.002359	   -0.001770	    0.000589	   -0.004497	    0.004364	   -0.000133	    0.005537	    0.002287	    0.007824	    0.041746	    0.025580	    0.067326	   -0.015113	   -0.039513	   -0.054626
     7.650	0	0	    0	    0.025770	   -0.011206	    0.014564	    0.005087	   -0.002990	    0.002097	   -0.009258	    0.009389	    0.000131	    0.005204	   -0.005914	   -0.000711	    0.007381	   -0.019778	   -0.012397	   -0.039469	    0.026868	   -0.012601	   -0.031658	    0.029193	   -0.002466	    0.032035	    0.022498	    0.054533	   -0.002810	   -0.002060	   -0.004870	   -0.031410	    0.036451	    0.005041	    0.000608	   -0.001575	   -0.000968	   -0.004087	   -0.001535	   -0.005622	   -0.002279	   -0.019371	   -0.021650	   -0.000682	    0.039516	    0.038835	   -0.065439	   -0.057569	   -0.123008	    0.041966	    0.041790	    0.083756	    0.016190	   -0.012259	    0.003931	    0.005027	   -0.006672	   -0.001645	   -0.004839	    0.003849	   -0.000990	    0.006527	    0.005599	    0.012126	    0.048631	    0.087020	    0.135651	   -0.056813	    0.015242	   -0.041571
     7.725	0	0	    0	    0.021628	   -0.003297	    0.018330	    0.002037	   -0.000328	    0.001709	   -0.009847	    0.010978	    0.001131	    0.005542	   -0.004104	    0.001438	    0.005660	   -0.022524	   -0.016864	   -0.024291	    0.013480	   -0.010811	   -0.085022	    0.043159	   -0.041862	    0.022069	    0.037145	    0.059213	   -0.004939	   -0.000322	   -0.005261	   -0.018160	    0.019146	    0.000985	    0.001048	   -0.002311	   -0.001263	   -0.005409	   -0.000728	   -0.006137	   -0.003392	   -0.019741	   -0.023133	   -0.032797	    0.039373	    0.006576	   -0.080845	   -0.083000	   -0.163845	    0.016027	    0.044994	    0.061022	    0.007919	   -0.003702	    0.004217	    0.003713	   -0.005056	   -0.001343	   -0.006637	    0.003932	   -0.002705	    0.005399	    0.005001	    0.010400	    0.011944	    0.079330	    0.091273	   -0.103936	   -0.054818	   -0.158754
     7.800	0	0	    0	    0.016400	    0.000655	    0.017056	   -0.001893	    0.001895	    0.000002	   -0.015889	    0.014246	   -0.001643	    0.006278	   -0.008159	   -0.001881	    0.002772	   -0.017767	   -0.014996	   -0.021166	    0.019109	   -0.002057	   -0.049580	    0.021346	   -0.028235	    0.003003	    0.029100	    0.032102	   -0.006956	    0.001125	   -0.005831	   -0.029611	    0.028700	   -0.000911	   -0.000014	   -0.002308	   -0.002323	   -0.007735	   -0.000511	   -0.008245	   -0.004897	   -0.017591	   -0.022488	   -0.036898	    0.033057	   -0.003841	   -0.033401	   -0.054818	   -0.088219	   -0.007281	    0.022123	    0.014842	   -0.002778	    0.001723	   -0.001055	    0.002419	   -0.006993	   -0.004573	   -0.007273	    0.002633	   -0.004640	   -0.005597	    0.004136	   -0.001461	   -0.014635	    0.034398	    0.019763	   -0.072293	   -0.078244	   -0.150537
     7.875	0	0	    0	   -0.005587	    0.007060	    0.001473	   -0.007847	    0.004924	   -0.002923	   -0.016389	    0.014446	   -0.001942	   -0.002081	   -0.000683	   -0.002764	   -0.003169	   -0.013526	   -0.016695	   -0.028737	    0.029332	    0.000595	   -0.058341	    0.061012	    0.002671	   -0.013429	    0.014972	    0.001543	   -0.007087	   -0.001438	   -0.008525	   -0.030117	    0.032351	    0.002234	   -0.002421	   -0.001902	   -0.004323	   -0.009565	   -0.001528	   -0.011093	   -0.007839	   -0.009277	   -0.017116	   -0.037289	    0.015452	   -0.021837	   -0.026871	   -0.040719	   -0.067590	   -0.014303	    0.009085	   -0.005217	   -0.005984	    0.000012	   -0.005972	   -0.003052	   -0.001824	   -0.004876	   -0.009784	    0.003143	   -0.006641	   -0.009903	    0.000865	   -0.009037	   -0.022862	    0.015354	   -0.007508	   -0.029230	   -0.003917	   -0.033147
     7.950	0	0	    0	    0.006945	   -0.004575	    0.002370	   -0.001671	   -0.006281	   -0.007953	   -0.009202	   -0.005819	   -0.015021	   -0.004341	   -0.001346	   -0.005687	   -0.002539	   -0.009436	   -0.011976	    0.001277	   -0.019188	   -0.017911	    0.002895	   -0.028945	   -0.026051	   -0.014726	    0.002430	   -0.012295	    0.003417	   -0.022230	   -0.018813	    0.005278	   -0.046878	   -0.041600	   -0.004589	   -0.002437	   -0.007026	   -0.011351	   -0.001449	   -0.012800	    0.012621	   -0.043914	   -0.031293	   -0.026372	   -0.015175	   -0.041547	   -0.019172	   -0.000966	   -0.020138	    0.002585	   -0.036301	   -0.033716	    0.046997	   -0.097192	   -0.050195	   -0.002335	   -0.006994	   -0.009329	   -0.010505	    0.001519	   -0.008986	   -0.006077	   -0.014496	   -0.020573	   -0.023307	   -0.013646	   -0.036952	   -0.025767	   -0.009073	   -0.034840
     8.025	0	0	    0	    0.009570	   -0.012080	   -0.002510	   -0.006218	    0.002010	   -0.004208	   -0.019156	    0.013249	   -0.005907	   -0.001663	   -0.006697	   -0.008360	    0.003235	   -0.020511	   -0.017276	   -0.022036	    0.021785	   -0.000251	   -0.034750	    0.038067	    0.003316	   -0.009023	   -0.007098	   -0.016122	   -0.007196	   -0.001150	   -0.008346	   -0.017009	    0.015194	   -0.001815	   -0.002147	   -0.003485	   -0.005631	   -0.013182	   -0.002244	   -0.015426	   -0.009198	   -0.007667	   -0.016865	   -0.035512	    0.017801	   -0.017710	   -0.007538	    0.001861	   -0.005677	   -0.018723	   -0.002079	   -0.020802	   -0.004596	   -0.001351	   -0.005947	   -0.003443	   -0.001656	   -0.005099	   -0.007892	    0.001919	   -0.005974	   -0.010201	   -0.003174	   -0.013375	   -0.021441	   -0.004337	   -0.025777	   -0.026153	    0.016469	   -0.009684
     8.100	0	0	    0	   -0.003426	    0.000177	   -0.003249	    0.000885	   -0.000653	    0.000232	   -0.011739	    0.014621	    0.002882	    0.002434	   -0.004626	   -0.002192	   -0.006627	   -0.006931	   -0.013559	   -0.012659	    0.018215	    0.005556	   -0.019238	    0.041493	    0.022255	   -0.007417	    0.000077	   -0.007340	   -0.001063	    0.000867	   -0.000196	   -0.034018	    0.030467	   -0.003551	    0.002102	   -0.002475	   -0.000373	   -0.009379	   -0.003535	   -0.012913	   -0.002403	   -0.006898	   -0.009301	   -0.027827	    0.013367	   -0.014461	   -0.030422	   -0.026443	   -0.056866	   -0.000452	   -0.001922	   -0.002374	    0.002404	   -0.002092	    0.000311	    0.007261	   -0.008656	   -0.001396	   -0.004363	    0.003138	   -0.001225	   -0.003915	   -0.001162	   -0.005076	   -0.005872	    0.002891	   -0.002980	   -0.045509	    0.013003	   -0.032506
     8.175	0	0	    0	    0.019567	   -0.012879	    0.006688	    0.003821	    0.001069	    0.004889	   -0.000419	    0.010910	    0.010491	    0.005908	   -0.004352	    0.001556	    0.003628	   -0.010657	   -0.007030	   -0.022027	    0.032347	    0.010321	   -0.026367	    0.065130	    0.038763	    0.007787	   -0.003873	    0.003914	    0.001364	   -0.001776	   -0.000412	   -0.018902	    0.027729	    0.008827	    0.002399	   -0.000599	    0.001800	   -0.004689	   -0.003728	   -0.008417	   -0.000062	   -0.004976	   -0.005037	   -0.003067	    0.014161	    0.011094	   -0.055591	   -0.030552	   -0.086143	    0.020777	    0.007262	    0.028039	   -0.000568	    0.005722	    0.005154	    0.007057	   -0.004738	    0.002319	   -0.002677	    0.004058	    0.001382	    0.005446	    0.001710	    0.007156	    0.028514	    0.016535	    0.045049	   -0.044511	   -0.036395	   -0.080906
     8.250	0	0	    0	    0.032603	   -0.015468	    0.017136	    0.008788	    0.000707	    0.009495	   -0.000013	    0.007346	    0.007333	    0.009429	   -0.007021	    0.002408	    0.006278	   -0.020070	   -0.013792	   -0.028370	    0.024098	   -0.004272	   -0.004026	    0.029595	    0.025569	    0.032242	    0.015594	    0.047836	   -0.002431	    0.002391	   -0.000040	    0.005403	   -0.002415	    0.002988	    0.002689	   -0.001556	    0.001133	   -0.004824	   -0.001452	   -0.006275	   -0.001005	   -0.018255	   -0.019260	    0.010635	    0.035327	    0.045963	   -0.052945	   -0.051537	   -0.104482	    0.041535	    0.043200	    0.084735	    0.013996	   -0.005859	    0.008137	    0.000239	    0.002126	    0.002365	   -0.003666	    0.004803	    0.001138	    0.009885	    0.006484	    0.016369	    0.063846	    0.077649	    0.141494	   -0.047574	    0.042229	   -0.005345
     8.325	0	0	    0	    0.024702	   -0.005481	    0.019221	    0.008850	   -0.001609	    0.007241	   -0.002069	    0.006876	    0.004808	    0.008360	   -0.005670	    0.002690	    0.010062	   -0.027003	   -0.016941	   -0.031034	    0.026597	   -0.004437	   -0.054047	    0.048340	   -0.005707	    0.033915	    0.028463	    0.062377	   -0.000117	   -0.002007	   -0.002124	   -0.007926	    0.018997	    0.011071	    0.002215	   -0.001539	    0.000676	   -0.003176	   -0.001331	   -0.004507	   -0.000803	   -0.020709	   -0.021513	   -0.013426	    0.045981	    0.032556	   -0.093772	   -0.052871	   -0.146643	    0.033260	    0.049138	    0.082398	    0.015464	   -0.009093	    0.006371	    0.000751	    0.000253	    0.001004	   -0.003424	    0.004177	    0.000753	    0.010330	    0.006747	    0.017077	    0.036491	    0.094823	    0.131314	   -0.118902	    0.004244	   -0.114659
     8.400	0	0	    0	    0.009273	    0.016709	    0.025982	    0.006988	   -0.000653	    0.006334	   -0.003937	    0.007912	    0.003975	    0.004895	   -0.001283	    0.003612	   -0.001014	   -0.012995	   -0.014009	   -0.020785	    0.029987	    0.009203	   -0.075947	    0.027338	   -0.048609	    0.014651	    0.038293	    0.052944	   -0.000547	   -0.001219	   -0.001766	   -0.017976	    0.021124	    0.003148	    0.003843	   -0.002521	    0.001323	   -0.005848	   -0.001115	   -0.006962	    0.001218	   -0.018286	   -0.017068	   -0.021268	    0.032359	    0.011091	   -0.034537	   -0.063859	   -0.098395	    0.010961	    0.032660	    0.043622	    0.009033	   -0.006812	    0.002221	    0.000226	   -0.001467	   -0.001241	   -0.005161	    0.003867	   -0.001294	    0.005076	    0.005243	    0.010319	    0.005005	    0.066944	    0.071949	   -0.093398	   -0.057629	   -0.151027
     8.475	0	0	    0	    0.015741	   -0.006321	    0.009420	    0.003584	    0.000672	    0.004257	   -0.004698	    0.005858	    0.001159	    0.005478	   -0.004481	    0.000996	    0.006410	   -0.024022	   -0.017612	   -0.011782	    0.018762	    0.006980	   -0.033821	    0.028884	   -0.004937	    0.006540	    0.013545	    0.020085	   -0.001332	   -0.001494	   -0.002826	   -0.000466	   -0.004708	   -0.005174	    0.002494	   -0.002027	    0.000466	   -0.005997	   -0.003006	   -0.009003	    0.008278	   -0.020466	   -0.012187	   -0.018556	    0.011664	   -0.006893	   -0.018397	   -0.050799	   -0.069195	    0.003019	    0.010070	    0.013089	    0.011290	   -0.014676	   -0.003386	    0.003819	   -0.008636	   -0.004817	   -0.005657	    0.003311	   -0.002346	    0.000539	    0.000752	    0.001290	   -0.007695	    0.023575	    0.015880	   -0.019011	   -0.027023	   -0.046035
     8.550	0	0	    0	   -0.001988	    0.001689	   -0.000299	   -0.000469	    0.001913	    0.001444	   -0.008160	    0.007598	   -0.000562	    0.003861	   -0.002433	    0.001427	   -0.000502	   -0.011459	   -0.011961	   -0.014137	    0.021696	    0.007559	   -0.062637	    0.064017	    0.001380	   -0.004469	    0.004978	    0.000509	    0.002446	   -0.002488	   -0.000042	   -0.023495	    0.028960	    0.005465	    0.000383	   -0.002299	   -0.001916	   -0.006518	   -0.002036	   -0.008554	    0.003398	   -0.007908	   -0.004511	   -0.030687	    0.025776	   -0.004911	   -0.016430	   -0.015493	   -0.031923	   -0.001966	    0.002624	    0.000658	    0.007999	   -0.005566	    0.002433	    0.004769	   -0.004382	    0.000387	   -0.005321	    0.002057	   -0.003263	   -0.000065	   -0.002124	   -0.002189	   -0.012918	    0.010168	   -0.002750	   -0.004448	    0.011917	    0.007469
     8.625	0	0	    0	    0.010949	   -0.005384	    0.005565	   -0.003657	    0.004331	    0.000674	   -0.016955	    0.013884	   -0.003071	    0.002681	   -0.005164	   -0.002482	    0.005128	   -0.014729	   -0.009601	   -0.015103	    0.022083	    0.006980	   -0.034750	    0.038067	    0.003316	   -0.005021	    0.001538	   -0.003483	   -0.003112	    0.002509	   -0.000603	   -0.022434	    0.022911	    0.000477	   -0.001066	   -0.002784	   -0.003851	   -0.006684	   -0.002039	   -0.008724	   -0.001543	   -0.003917	   -0.005460	   -0.035759	    0.021846	   -0.013912	   -0.042667	    0.012354	   -0.030313	   -0.009294	    0.002306	   -0.006987	   -0.006391	    0.005885	   -0.000506	    0.006213	   -0.006870	   -0.000657	   -0.005817	    0.001987	   -0.003830	   -0.003730	   -0.000380	   -0.004110	   -0.018203	    0.004517	   -0.013686	   -0.011988	    0.007069	   -0.004918
     8.700	0	0	    0	    0.003422	   -0.005998	   -0.002576	   -0.002476	   -0.000471	   -0.002947	   -0.016005	    0.011427	   -0.004578	    0.002070	   -0.005493	   -0.003423	   -0.000000	   -0.010424	   -0.010424	   -0.014494	    0.018055	    0.003561	   -0.038001	    0.038455	    0.000454	   -0.009360	    0.000446	   -0.008914	   -0.003361	    0.000216	   -0.003145	   -0.027910	    0.020291	   -0.007619	   -0.001562	   -0.002544	   -0.004107	   -0.009171	   -0.000989	   -0.010160	    0.000090	   -0.009463	   -0.009373	   -0.029867	    0.009980	   -0.019888	   -0.032062	   -0.044665	   -0.076727	   -0.006436	   -0.001518	   -0.007954	    0.003653	   -0.002366	    0.001287	   -0.001095	    0.000157	   -0.000938	   -0.005353	    0.001863	   -0.003490	   -0.002958	   -0.002463	   -0.005420	   -0.012017	    0.001149	   -0.010868	   -0.058447	    0.003288	   -0.055159
     8.775	0	0	    0	    0.005696	   -0.002969	    0.002727	   -0.003626	    0.000529	   -0.003097	   -0.019952	    0.012559	   -0.007393	    0.001376	   -0.005936	   -0.004560	    0.004392	   -0.009350	   -0.004958	   -0.028520	    0.032300	    0.003781	   -0.056024	    0.045884	   -0.010140	   -0.000773	   -0.003477	   -0.004249	   -0.004935	   -0.003364	   -0.008299	   -0.030157	    0.031730	    0.001573	   -0.001850	   -0.002657	   -0.004507	   -0.008499	   -0.000905	   -0.009404	   -0.005037	   -0.006590	   -0.011627	   -0.019270	    0.019710	    0.000440	   -0.043591	   -0.058140	   -0.101731	    0.008006	   -0.001634	    0.006372	    0.012944	   -0.017184	   -0.004240	    0.004518	   -0.005650	   -0.001132	   -0.006684	    0.003522	   -0.003162	   -0.000417	   -0.000815	   -0.001232	    0.004771	    0.009133	    0.013904	   -0.058543	   -0.056256	   -0.114800
     8.850	0	0	    0	    0.010324	   -0.001181	    0.009143	   -0.000500	   -0.000044	   -0.000544	   -0.011075	    0.004442	   -0.006632	   -0.001150	   -0.003844	   -0.004994	   -0.008338	   -0.011818	   -0.020156	   -0.038906	    0.021525	   -0.017381	   -0.036303	    0.039865	    0.003562	    0.019684	    0.015037	    0.034721	   -0.006014	   -0.003827	   -0.009841	   -0.029483	    0.030733	    0.001250	   -0.001779	   -0.003185	   -0.004964	   -0.009096	   -0.001296	   -0.010392	   -0.011331	   -0.015832	   -0.027163	   -0.003015	    0.037149	    0.034134	   -0.059608	   -0.062697	   -0.122305	    0.033652	    0.039608	    0.073259	    0.002124	    0.000097	    0.002221	   -0.001503	   -0.001335	   -0.002838	   -0.007534	    0.003206	   -0.004327	    0.001533	    0.004565	    0.006098	    0.043863	    0.066933	    0.110796	   -0.054333	    0.016690	   -0.037643
     8.925	0	0	    0	    0.013844	   -0.000457	    0.013387	   -0.001855	    0.001435	   -0.000421	   -0.014274	    0.003412	   -0.010861	   -0.000838	   -0.005118	   -0.005955	   -0.004704	   -0.018556	   -0.023260	   -0.043186	    0.028359	   -0.014828	   -0.094934	    0.060675	   -0.034259	    0.015018	    0.037448	    0.052466	   -0.009289	   -0.002211	   -0.011500	   -0.022980	    0.024456	    0.001476	   -0.002536	   -0.002886	   -0.005421	   -0.009391	   -0.002492	   -0.011884	   -0.007361	   -0.022967	   -0.030328	   -0.030117	    0.053257	    0.023140	   -0.100761	   -0.057537	   -0.158298	    0.022774	    0.046684	    0.069458	    0.002409	    0.002344	    0.004753	   -0.001672	   -0.000716	   -0.002388	   -0.009349	    0.003822	   -0.005527	    0.001932	    0.003968	    0.005900	    0.017454	    0.089602	    0.107055	   -0.126317	   -0.001805	   -0.128121
     9.000	0	0	    0	    0.022213	   -0.007518	    0.014695	   -0.003402	    0.002009	   -0.001393	   -0.016528	    0.007464	   -0.009064	    0.000970	   -0.006301	   -0.005331	    0.002497	   -0.024943	   -0.022446	   -0.033295	    0.024647	   -0.008647	   -0.089227	    0.009770	   -0.079456	    0.011971	    0.029073	    0.041044	   -0.010459	   -0.002645	   -0.013104	   -0.022588	    0.012689	   -0.009899	   -0.002439	   -0.003148	   -0.005587	   -0.010314	   -0.002887	   -0.013201	   -0.006593	   -0.020439	   -0.027032	   -0.036175	    0.024276	   -0.011899	   -0.066565	   -0.073146	   -0.139711	    0.002273	    0.032064	    0.034337	    0.010239	   -0.016964	   -0.006725	   -0.002207	   -0.004071	   -0.006278	   -0.010806	    0.002720	   -0.008085	   -0.003690	    0.002631	   -0.001059	   -0.018705	    0.060403	    0.041698	   -0.109572	   -0.071312	   -0.180884
     9.075	0	0	    0	   -0.003203	    0.014214	    0.011010	   -0.000199	    0.000473	    0.000274	   -0.013648	    0.006806	   -0.006842	   -0.003337	   -0.001736	   -0.005074	   -0.003050	   -0.015291	   -0.018341	   -0.017277	    0.018276	    0.000999	   -0.053259	    0.027848	   -0.025411	   -0.006262	    0.030844	    0.024582	   -0.001747	   -0.006218	   -0.007965	   -0.012792	    0.003891	   -0.008901	   -0.000082	   -0.002364	   -0.002446	   -0.011279	   -0.002787	   -0.014066	    0.000782	   -0.018605	   -0.017824	   -0.023645	    0.022215	   -0.001430	   -0.034333	   -0.052470	   -0.086804	    0.006693	    0.012250	    0.018944	    0.007176	   -0.011325	   -0.004149	    0.001616	   -0.001191	    0.000425	   -0.006253	    0.002355	   -0.003897	   -0.001394	   -0.001142	   -0.002536	   -0.008149	    0.020917	    0.012768	   -0.027686	   -0.055189	   -0.082875
     9.150	0	0	    0	    0.003931	    0.004340	    0.008271	    0.004084	    0.002059	    0.006143	   -0.008916	    0.007683	   -0.001233	   -0.000102	   -0.000979	   -0.001081	    0.001812	   -0.012209	   -0.010397	   -0.004439	    0.010434	    0.005996	   -0.028489	    0.016502	   -0.011988	    0.002212	    0.009981	    0.012194	    0.000268	    0.002894	    0.003162	   -0.018231	    0.010942	   -0.007288	    0.001476	   -0.002089	   -0.000613	   -0.007040	   -0.002317	   -0.009357	    0.004994	   -0.010314	   -0.005320	   -0.018221	    0.013562	   -0.004659	   -0.017046	   -0.045297	   -0.062344	    0.001558	    0.011212	    0.012770	    0.004541	   -0.006619	   -0.002078	    0.002707	   -0.004098	   -0.001392	   -0.004187	    0.002860	   -0.001327	    0.001400	   -0.000339	    0.001061	   -0.007740	    0.016996	    0.009255	   -0.001714	    0.006492	    0.004778
     9.225	0	0	    0	    0.016205	   -0.011169	    0.005035	    0.001484	    0.004200	    0.005683	   -0.008968	    0.008640	   -0.000329	    0.006057	   -0.003202	    0.002855	    0.004813	   -0.008844	   -0.004031	   -0.004866	    0.011821	    0.006955	   -0.029843	    0.030494	    0.000652	    0.002194	    0.008949	    0.011143	    0.004227	    0.002093	    0.006320	   -0.009174	    0.020056	    0.010883	    0.003444	   -0.001900	    0.001543	   -0.005072	   -0.002189	   -0.007261	    0.004842	   -0.003461	    0.001380	   -0.020737	    0.022594	    0.001858	   -0.031819	    0.013838	   -0.017980	    0.005454	    0.007760	    0.013214	    0.010685	   -0.006229	    0.004457	    0.004907	    0.002788	    0.007696	   -0.002615	    0.002859	    0.000244	    0.003551	   -0.000544	    0.003007	   -0.006423	    0.010480	    0.004057	    0.002758	    0.030295	    0.033053
     9.300	0	0	    0	    0.013151	   -0.010717	    0.002434	    0.004913	   -0.001685	    0.003228	    0.003251	   -0.004476	   -0.001225	    0.004816	   -0.004308	    0.000508	    0.008869	   -0.017270	   -0.008401	   -0.002117	    0.007542	    0.005425	    0.009468	   -0.004991	    0.004477	    0.008200	   -0.004033	    0.004167	    0.000685	    0.003492	    0.004177	    0.000313	   -0.008875	   -0.008562	    0.002413	   -0.002149	    0.000264	   -0.005762	   -0.001846	   -0.007608	    0.004033	   -0.004504	   -0.000471	    0.002419	   -0.004301	   -0.001882	   -0.011252	   -0.082410	   -0.093662	    0.012927	    0.007298	    0.020225	    0.003950	    0.000883	    0.004833	    0.012229	   -0.010376	    0.001853	   -0.002128	    0.003803	    0.001675	    0.007814	   -0.001384	    0.006431	    0.008175	    0.016662	    0.024837	   -0.036154	   -0.015800	   -0.051955
     9.375	0	0	    0	    0.012303	    0.001482	    0.013784	    0.006336	    0.001499	    0.007835	   -0.006228	    0.006041	   -0.000187	    0.005564	   -0.004367	    0.001197	    0.006989	   -0.012693	   -0.005704	   -0.032235	    0.028124	   -0.004111	   -0.027856	    0.051995	    0.024139	    0.028431	    0.008489	    0.036920	    0.002053	   -0.001387	    0.000666	   -0.024737	    0.033039	    0.008302	    0.003005	   -0.002736	    0.000269	   -0.003212	   -0.002646	   -0.005858	   -0.001414	   -0.010380	   -0.011793	    0.007289	    0.037980	    0.045269	   -0.045084	   -0.070056	   -0.115141	    0.045464	    0.036014	    0.081478	    0.014951	   -0.005234	    0.009718	    0.005589	    0.000276	    0.005864	   -0.002843	    0.004118	    0.001275	    0.013120	    0.003306	    0.016426	    0.058528	    0.057720	    0.116248	    0.007973	    0.013729	    0.021702
     9.450	0	0	    0	    0.022790	    0.000476	    0.023266	    0.002348	    0.006254	    0.008602	   -0.010033	    0.012066	    0.002033	    0.005642	   -0.003571	    0.002071	    0.010390	   -0.020314	   -0.009924	   -0.027969	    0.026805	   -0.001164	   -0.045110	    0.061322	    0.016212	    0.035221	    0.033987	    0.069208	   -0.000666	    0.000789	    0.000124	   -0.007700	    0.014053	    0.006353	    0.002539	   -0.002200	    0.000339	   -0.003780	   -0.001933	   -0.005712	    0.000651	   -0.015679	   -0.015028	    0.008710	    0.055368	    0.064078	   -0.083911	   -0.038087	   -0.121998	    0.041738	    0.053945	    0.095683	    0.011345	   -0.000240	    0.011105	    0.004804	   -0.002735	    0.002069	   -0.003779	    0.004368	    0.000589	    0.014024	    0.006050	    0.020074	    0.053152	    0.103131	    0.156283	   -0.076049	    0.048123	   -0.027926
     9.525	0	0	    0	    0.022376	   -0.003409	    0.018967	    0.007052	   -0.002956	    0.004095	   -0.004281	    0.004907	    0.000626	    0.005668	   -0.002711	    0.002957	    0.010869	   -0.022579	   -0.011710	   -0.022125	    0.019494	   -0.002631	   -0.070249	    0.018966	   -0.051283	    0.020033	    0.041232	    0.061266	    0.000282	   -0.001576	   -0.001294	   -0.013224	    0.005302	   -0.007922	    0.001037	   -0.001379	   -0.000342	   -0.004063	   -0.001262	   -0.005324	    0.001257	   -0.017665	   -0.016407	   -0.021579	    0.049078	    0.027499	   -0.096970	   -0.068070	   -0.165040	    0.016728	    0.044552	    0.061280	    0.010343	   -0.005813	    0.004529	    0.002133	   -0.002223	   -0.000090	   -0.004659	    0.004005	   -0.000653	    0.011577	    0.006492	    0.018070	    0.018854	    0.080508	    0.099362	   -0.091849	   -0.041228	   -0.133078
     9.600	0	0	    0	    0.009837	    0.005507	    0.015344	    0.001519	   -0.000120	    0.001399	   -0.007400	    0.006228	   -0.001173	    0.001861	   -0.001020	    0.000841	    0.008717	   -0.019301	   -0.010584	   -0.009435	    0.015838	    0.006403	   -0.056834	    0.024254	   -0.032580	   -0.004549	    0.035325	    0.030776	   -0.001196	   -0.002317	   -0.003513	   -0.008358	   -0.003947	   -0.012305	    0.000345	   -0.001541	   -0.001196	   -0.006046	   -0.002430	   -0.008475	    0.008209	   -0.020923	   -0.012714	   -0.019580	    0.040130	    0.020550	   -0.041826	   -0.041601	   -0.083427	    0.001686	    0.014942	    0.016628	    0.009227	   -0.012996	   -0.003769	    0.001640	   -0.005590	   -0.003950	   -0.005641	    0.002558	   -0.003083	    0.004610	    0.001202	    0.005812	   -0.004703	    0.037702	    0.032999	   -0.061057	   -0.055249	   -0.116305
     9.675	0	0	    0	    0.014005	   -0.005824	    0.008181	   -0.002805	    0.004186	    0.001381	   -0.018038	    0.014826	   -0.003212	   -0.000319	   -0.000261	   -0.000580	    0.007491	   -0.014998	   -0.007507	   -0.028012	    0.034897	    0.006885	   -0.072500	    0.070196	   -0.002304	   -0.006429	    0.006427	   -0.000002	   -0.003615	   -0.000788	   -0.004403	   -0.039652	    0.034810	   -0.004842	   -0.001253	   -0.001580	   -0.002833	   -0.007255	   -0.001117	   -0.008372	   -0.000033	   -0.008926	   -0.008959	   -0.022388	    0.020740	   -0.001649	   -0.034799	   -0.050355	   -0.085154	   -0.005358	    0.003556	   -0.001802	    0.008390	   -0.005202	    0.003187	    0.001852	    0.000094	    0.001946	   -0.006423	    0.002948	   -0.003475	   -0.000301	   -0.000119	   -0.000420	   -0.014796	    0.024086	    0.009290	   -0.032187	    0.004881	   -0.027306
     9.750	0	0	    0	   -0.000403	    0.000518	    0.000115	   -0.004427	    0.002420	   -0.002007	   -0.016906	    0.011285	   -0.005621	   -0.000959	   -0.001221	   -0.002180	    0.003742	   -0.012450	   -0.008708	   -0.016546	    0.016556	    0.000010	   -0.059613	    0.063867	    0.004254	   -0.009790	    0.005142	   -0.004648	   -0.003496	   -0.003285	   -0.006781	   -0.029160	    0.024282	   -0.004878	   -0.002328	   -0.002801	   -0.005129	   -0.007408	   -0.002794	   -0.010202	    0.001135	   -0.010996	   -0.009862	   -0.025469	    0.016039	   -0.009431	   -0.038781	   -0.008686	   -0.047467	   -0.010515	    0.000976	   -0.009539	    0.005089	   -0.006362	   -0.001273	   -0.000977	    0.001218	    0.000240	   -0.007156	    0.002166	   -0.004989	   -0.001419	   -0.002856	   -0.004275	   -0.018133	    0.010382	   -0.007751	   -0.017761	    0.027580	    0.009819
     9.825	0	0	    0	   -0.000538	    0.003210	    0.002671	   -0.000727	   -0.000441	   -0.001168	   -0.012309	    0.002625	   -0.009685	   -0.001904	   -0.003551	   -0.005455	    0.007222	   -0.015763	   -0.008541	   -0.014860	    0.014460	   -0.000400	   -0.026250	    0.025849	   -0.000401	   -0.010729	    0.000816	   -0.009913	   -0.005338	   -0.000832	   -0.006170	   -0.008358	   -0.003947	   -0.012305	   -0.003200	   -0.003431	   -0.006631	   -0.008442	   -0.001694	   -0.010136	   -0.002312	   -0.007265	   -0.009577	   -0.034177	    0.025840	   -0.008337	   -0.021284	    0.007913	   -0.013370	   -0.011178	   -0.003008	   -0.014186	    0.000522	   -0.005120	   -0.004597	    0.004979	   -0.005835	   -0.000856	   -0.007981	    0.002146	   -0.005834	   -0.002549	   -0.002685	   -0.005235	   -0.021715	    0.003821	   -0.017895	   -0.005376	    0.027765	    0.022389
     9.900	0	0	    0	    0.000640	    0.000871	    0.001511	   -0.003904	   -0.000238	   -0.004142	   -0.020922	    0.007521	   -0.013401	   -0.002604	   -0.003322	   -0.005927	    0.000779	   -0.007582	   -0.006803	   -0.024768	    0.017193	   -0.007575	   -0.033038	    0.028882	   -0.004155	   -0.015270	    0.004533	   -0.010737	   -0.004153	   -0.003266	   -0.007419	   -0.022338	    0.007912	   -0.014426	   -0.003460	   -0.002870	   -0.006330	   -0.009600	   -0.002000	   -0.011600	   -0.000200	   -0.011157	   -0.011358	   -0.042017	    0.028588	   -0.013429	   -0.065438	    0.028559	   -0.036878	   -0.009140	   -0.007377	   -0.016517	    0.014884	   -0.022783	   -0.007900	    0.000802	   -0.006625	   -0.005823	   -0.007828	    0.001941	   -0.005887	   -0.002820	   -0.004459	   -0.007278	   -0.024274	   -0.000288	   -0.024562	   -0.028937	    0.035820	    0.006883
