 [File Information]      		 [Data Line]	36
Measured Date	2024/05/27 092524
ID		Version	11.0
Name	oceane_1	[HeaderType]	11.0/11.0
Comment	
[Measurement Info.]
Holder Location	       0
Block Design	Off     
Pre.Rest Time	       0
Task Time	       0
Pos.Rest Time	       0
Loop	       0
Averaging	       1
Total Points	     844
[.INF File]
Filename	Cognitive1.INF
[Condition-1]
HV Switching	OFF
 R1 ,R2 ,R3 ,R4 ,R5 ,R6 ,R7 ,R8 
 120.00, 70.00,120.00,100.00, 90.00, 70.00,120.00,120.00
 Gain(X1,X4,X16,X64)
 R1 ,R2 ,R3 ,R4 ,R5 ,R6 ,R7 ,R8 
 1,1,1,1,1,1,1,1
[Analysis Condition]
Smoothed Type	None            
Smoothed Points	       0
Smoothed Loop	       0
Baseline Method	None            
Baseline location	
[Text Info.]
Output Mode	Continious      	Task No.		Data Type	Hb      
Time Range	    0.00	   63.23	Averaing	1
(1,3)(5,3)(5,7)(2,7)(2,4)(6,4)(6,8)(1,1)(3,3)(5,5)(7,7)(2,2)(4,4)(6,6)(8,8)(3,1)(3,5)(7,5)(7,2)(4,2)(4,6)(8,6)
         	     	     	     	    ch- 1	    ch- 1	    ch- 1	    ch- 2	    ch- 2	    ch- 2	    ch- 3	    ch- 3	    ch- 3	    ch- 4	    ch- 4	    ch- 4	    ch- 5	    ch- 5	    ch- 5	    ch- 6	    ch- 6	    ch- 6	    ch- 7	    ch- 7	    ch- 7	    ch- 8	    ch- 8	    ch- 8	    ch- 9	    ch- 9	    ch- 9	    ch-10	    ch-10	    ch-10	    ch-11	    ch-11	    ch-11	    ch-12	    ch-12	    ch-12	    ch-13	    ch-13	    ch-13	    ch-14	    ch-14	    ch-14	    ch-15	    ch-15	    ch-15	    ch-16	    ch-16	    ch-16	    ch-17	    ch-17	    ch-17	    ch-18	    ch-18	    ch-18	    ch-19	    ch-19	    ch-19	    ch-20	    ch-20	    ch-20	    ch-21	    ch-21	    ch-21	    ch-22	    ch-22	    ch-22
Time(sec)	Task	Mark	Count	    oxyHb   	  deoxyHb	  totalHb	    oxyHb   	  deoxyHb	  totalHb	    oxyHb   	  deoxyHb	  totalHb	    oxyHb   	  deoxyHb	  totalHb	    oxyHb   	  deoxyHb	  totalHb	    oxyHb   	  deoxyHb	  totalHb	    oxyHb   	  deoxyHb	  totalHb	    oxyHb   	  deoxyHb	  totalHb	    oxyHb   	  deoxyHb	  totalHb	    oxyHb   	  deoxyHb	  totalHb	    oxyHb   	  deoxyHb	  totalHb	    oxyHb   	  deoxyHb	  totalHb	    oxyHb   	  deoxyHb	  totalHb	    oxyHb   	  deoxyHb	  totalHb	    oxyHb   	  deoxyHb	  totalHb	    oxyHb   	  deoxyHb	  totalHb	    oxyHb   	  deoxyHb	  totalHb	    oxyHb   	  deoxyHb	  totalHb	    oxyHb   	  deoxyHb	  totalHb	    oxyHb   	  deoxyHb	  totalHb	    oxyHb   	  deoxyHb	  totalHb	    oxyHb   	  deoxyHb	  totalHb
     0.000	0	0Z	    0	    0.000000	    0.000000	    0.000000	    0.000000	    0.000000	    0.000000	    0.000000	    0.000000	    0.000000	    0.000000	    0.000000	    0.000000	    0.000000	    0.000000	    0.000000	    0.000000	    0.000000	    0.000000	    0.000000	    0.000000	    0.000000	    0.000000	    0.000000	    0.000000	    0.000000	    0.000000	    0.000000	    0.000000	    0.000000	    0.000000	    0.000000	    0.000000	    0.000000	    0.000000	    0.000000	    0.000000	    0.000000	    0.000000	    0.000000	    0.000000	    0.000000	    0.000000	    0.000000	    0.000000	    0.000000	    0.000000	    0.000000	    0.000000	    0.000000	    0.000000	    0.000000	    0.000000	    0.000000	    0.000000	    0.000000	    0.000000	    0.000000	    0.000000	    0.000000	    0.000000	    0.000000	    0.000000	    0.000000	    0.000000	    0.000000	    0.000000
     0.075	0	0	    0	    0.007228	    0.015790	    0.023019	    0.000823	    0.006133	    0.006957	   -0.008377	    0.015982	    0.007605	   -0.001882	    0.004732	    0.002851	    0.003812	    0.010866	    0.014678	   -0.000932	    0.014489	    0.013557	    0.012148	    0.049739	    0.061887	   -0.002156	    0.003733	    0.001577	    0.001907	    0.002186	    0.004094	   -0.010740	    0.071122	    0.060382	   -0.000800	   -0.004082	   -0.004883	    0.001136	    0.001922	    0.003059	   -0.000928	    0.014949	    0.014021	    0.006174	    0.020948	    0.027122	    0.025437	   -0.005863	    0.019574	   -0.006770	    0.001481	   -0.005289	   -0.012326	    0.036613	    0.024288	    0.008160	   -0.024383	   -0.016223	   -0.000471	   -0.002845	   -0.003316	   -0.002368	    0.001084	   -0.001284	   -0.011724	    0.002272	   -0.009452	    0.042937	    0.042821	    0.085758
     0.150	0	0	    0	    0.008874	    0.005278	    0.014152	   -0.002732	    0.006259	    0.003527	   -0.009486	    0.013509	    0.004023	    0.001543	   -0.000883	    0.000660	    0.005106	    0.006587	    0.011693	   -0.003141	    0.003890	    0.000749	    0.027224	    0.042975	    0.070199	   -0.005011	    0.003103	   -0.001908	   -0.001299	    0.002523	    0.001224	   -0.012981	    0.064073	    0.051092	   -0.002096	   -0.004611	   -0.006707	    0.000092	    0.001105	    0.001197	   -0.000205	    0.014819	    0.014614	    0.008839	    0.032110	    0.040949	    0.033399	    0.031252	    0.064651	   -0.008637	   -0.003410	   -0.012047	   -0.007900	    0.030559	    0.022659	    0.007074	   -0.023392	   -0.016319	   -0.001049	   -0.002803	   -0.003852	   -0.000687	   -0.001000	   -0.001687	   -0.013696	   -0.005054	   -0.018751	    0.053170	    0.065485	    0.118655
     0.225	0	0	    0	    0.011183	    0.000664	    0.011847	   -0.000758	    0.001146	    0.000388	    0.007127	   -0.002917	    0.004210	    0.005276	   -0.003470	    0.001806	    0.004494	    0.006825	    0.011319	    0.008384	   -0.008667	   -0.000283	    0.043173	    0.044832	    0.088005	   -0.008453	   -0.001042	   -0.009494	    0.001032	   -0.000104	    0.000928	   -0.010209	    0.061549	    0.051339	   -0.002469	   -0.003689	   -0.006158	   -0.000858	    0.000180	   -0.000677	    0.000304	    0.012093	    0.012398	   -0.013975	    0.029738	    0.015763	   -0.024376	    0.005196	   -0.019180	   -0.003645	   -0.007031	   -0.010676	   -0.002850	    0.025547	    0.022698	    0.001192	   -0.018066	   -0.016873	   -0.001609	   -0.002208	   -0.003817	   -0.001261	   -0.001725	   -0.002985	   -0.003841	   -0.004662	   -0.008503	    0.035802	    0.081358	    0.117160
     0.300	0	0	    0	    0.017329	    0.004669	    0.021998	   -0.000292	    0.001653	    0.001360	   -0.006123	    0.011879	    0.005755	    0.006352	   -0.001181	    0.005171	    0.008281	    0.009964	    0.018244	   -0.002064	    0.015898	    0.013834	    0.024149	    0.070463	    0.094613	   -0.002107	   -0.004950	   -0.007056	   -0.003207	    0.003392	    0.000184	   -0.024370	    0.089930	    0.065561	    0.000327	   -0.004993	   -0.004666	    0.000573	   -0.001057	   -0.000485	   -0.004137	    0.017451	    0.013314	   -0.008130	    0.002192	   -0.005938	    0.004967	   -0.087653	   -0.082687	   -0.004883	    0.002665	   -0.002218	   -0.008742	    0.031179	    0.022437	    0.010708	   -0.026755	   -0.016047	   -0.000416	   -0.001668	   -0.002084	   -0.001845	    0.000239	   -0.001606	    0.001380	    0.001377	    0.002757	    0.012604	    0.043300	    0.055904
     0.375	0	0	    0	    0.028264	   -0.009147	    0.019118	   -0.001305	    0.004042	    0.002737	   -0.001474	    0.007797	    0.006323	    0.009273	   -0.002276	    0.006998	    0.011525	    0.006976	    0.018501	   -0.002646	    0.021554	    0.018908	    0.026301	    0.050559	    0.076860	    0.009723	   -0.004362	    0.005361	   -0.002145	    0.000059	   -0.002086	   -0.028917	    0.087586	    0.058669	    0.001076	   -0.004278	   -0.003201	   -0.000717	   -0.000557	   -0.001274	   -0.003787	    0.013715	    0.009928	   -0.006673	    0.005782	   -0.000892	   -0.020359	   -0.091014	   -0.111373	    0.004440	    0.002109	    0.006549	   -0.003446	    0.021474	    0.018029	    0.013680	   -0.032042	   -0.018362	   -0.000552	   -0.000860	   -0.001412	    0.000498	    0.000250	    0.000748	    0.014568	    0.008181	    0.022749	    0.012636	    0.023165	    0.035802
     0.450	0	0	    0	    0.023140	    0.001650	    0.024790	    0.001871	    0.001023	    0.002894	   -0.000222	    0.003252	    0.003030	    0.009993	   -0.004486	    0.005507	    0.013034	    0.002963	    0.015997	   -0.004119	    0.022144	    0.018025	    0.035042	    0.039033	    0.074075	    0.012175	    0.003772	    0.015948	   -0.004320	    0.001214	   -0.003106	   -0.013810	    0.070348	    0.056538	    0.000757	   -0.003471	   -0.002714	    0.000562	   -0.001735	   -0.001174	   -0.006831	    0.015616	    0.008785	   -0.011670	    0.009032	   -0.002638	   -0.042140	   -0.095714	   -0.137853	    0.013617	    0.009899	    0.023517	   -0.007728	    0.029454	    0.021726	    0.009059	   -0.028564	   -0.019505	   -0.000699	   -0.000198	   -0.000897	    0.001355	    0.002604	    0.003959	    0.021379	    0.029655	    0.051035	    0.024650	    0.033288	    0.057938
     0.525	0	0	    0	    0.018187	    0.012188	    0.030375	   -0.001043	    0.005082	    0.004039	   -0.003244	    0.005311	    0.002067	    0.007446	   -0.000617	    0.006829	    0.004500	    0.013192	    0.017692	   -0.013847	    0.026289	    0.012442	    0.009550	    0.054724	    0.064274	    0.014962	    0.004939	    0.019901	   -0.005067	    0.002171	   -0.002897	   -0.004753	    0.062573	    0.057820	    0.000147	   -0.003146	   -0.002999	   -0.000985	    0.000002	   -0.000984	   -0.008087	    0.013547	    0.005460	   -0.007657	    0.004058	   -0.003599	   -0.047536	   -0.097270	   -0.144807	    0.019938	    0.018865	    0.038803	   -0.008742	    0.031179	    0.022437	    0.004517	   -0.022948	   -0.018431	   -0.002133	   -0.000006	   -0.002139	    0.001021	    0.003190	    0.004211	    0.019969	    0.039903	    0.059872	    0.015362	    0.050359	    0.065722
     0.600	0	0	    0	    0.017632	    0.009492	    0.027124	    0.006023	   -0.001734	    0.004289	   -0.001370	    0.002973	    0.001603	    0.007781	   -0.000604	    0.007177	    0.004533	    0.012145	    0.016678	   -0.003831	    0.019978	    0.016147	    0.012678	    0.027088	    0.039767	    0.008352	    0.015489	    0.023841	   -0.004677	    0.001677	   -0.003000	    0.002307	    0.051747	    0.054054	    0.000385	   -0.003391	   -0.003006	   -0.002584	   -0.000213	   -0.002797	   -0.011505	    0.017041	    0.005537	   -0.008038	    0.001063	   -0.006975	   -0.045518	   -0.103536	   -0.149054	    0.010733	    0.023689	    0.034423	   -0.014486	    0.033645	    0.019159	    0.006751	   -0.028515	   -0.021764	   -0.002776	   -0.000446	   -0.003222	   -0.000537	    0.004466	    0.003929	    0.008103	    0.041739	    0.049842	   -0.039700	    0.031202	   -0.008498
     0.675	0	0	    0	    0.008649	    0.002200	    0.010849	   -0.003485	    0.002983	   -0.000502	   -0.006412	    0.010105	    0.003692	    0.003407	    0.002764	    0.006171	    0.002746	    0.009052	    0.011798	   -0.008176	    0.019830	    0.011654	   -0.005999	    0.022460	    0.016461	   -0.010145	   -0.000515	   -0.010659	   -0.008083	    0.003002	   -0.005081	   -0.017479	    0.071956	    0.054477	    0.001010	   -0.004343	   -0.003333	   -0.004903	    0.000609	   -0.004295	   -0.011305	    0.015649	    0.004345	   -0.004265	   -0.001510	   -0.005774	    0.009603	   -0.082400	   -0.072797	   -0.009629	    0.018224	    0.008595	   -0.022666	    0.040490	    0.017824	    0.001398	   -0.027225	   -0.025827	   -0.005787	   -0.001142	   -0.006929	   -0.008802	    0.006369	   -0.002433	   -0.021404	    0.019981	   -0.001423	   -0.031588	   -0.033732	   -0.065320
     0.750	0	0	    0	    0.021918	   -0.007021	    0.014897	    0.002480	   -0.002026	    0.000454	   -0.005298	    0.007024	    0.001726	    0.009650	   -0.001000	    0.008649	    0.014775	    0.000237	    0.015012	    0.006287	    0.000596	    0.006882	    0.020155	    0.032884	    0.053039	   -0.000055	   -0.008403	   -0.008458	   -0.003513	    0.001021	   -0.002492	   -0.012651	    0.067323	    0.054672	   -0.000521	   -0.002809	   -0.003330	    0.000075	   -0.002906	   -0.002831	   -0.008711	    0.013371	    0.004659	    0.006912	   -0.002923	    0.003989	    0.024220	   -0.069219	   -0.044999	   -0.010892	    0.000218	   -0.010673	   -0.011527	    0.021700	    0.010173	    0.005742	   -0.028372	   -0.022630	   -0.003739	   -0.002520	   -0.006259	   -0.014251	   -0.002148	   -0.016399	   -0.023062	   -0.009438	   -0.032499	    0.026098	    0.006388	    0.032487
     0.825	0	0	    0	    0.018479	   -0.004392	    0.014087	    0.002293	    0.004492	    0.006786	   -0.004751	    0.006760	    0.002009	    0.009728	    0.000193	    0.009921	    0.009313	    0.003908	    0.013221	   -0.005498	    0.005628	    0.000129	    0.022445	    0.044892	    0.067336	    0.000906	   -0.010291	   -0.009385	    0.002045	    0.001876	    0.003922	   -0.012382	    0.069775	    0.057394	    0.002363	   -0.003215	   -0.000852	   -0.000455	   -0.000659	   -0.001113	   -0.002686	    0.015985	    0.013300	    0.008296	    0.025087	    0.033383	    0.022988	    0.007997	    0.030985	   -0.006951	   -0.004306	   -0.011257	   -0.015505	    0.035374	    0.019868	    0.010765	   -0.025693	   -0.014928	    0.000027	   -0.002436	   -0.002409	   -0.006019	   -0.003274	   -0.009294	   -0.015556	   -0.005558	   -0.021114	    0.065010	    0.043129	    0.108138
     0.900	0	0	    0	    0.021041	   -0.005946	    0.015095	    0.002391	    0.005505	    0.007896	    0.001093	    0.008041	    0.009134	    0.015845	    0.000358	    0.016203	    0.015426	    0.001481	    0.016907	    0.007987	   -0.002104	    0.005883	    0.031798	    0.059092	    0.090890	   -0.002430	   -0.011285	   -0.013715	    0.006897	    0.003316	    0.010213	   -0.012885	    0.072704	    0.059819	    0.003217	   -0.001188	    0.002029	    0.002655	   -0.001791	    0.000864	    0.001562	    0.017831	    0.019392	   -0.011905	    0.034830	    0.022925	   -0.026827	   -0.018661	   -0.045489	   -0.003502	   -0.004820	   -0.008323	   -0.009626	    0.036766	    0.027140	    0.011415	   -0.025642	   -0.014227	    0.002121	   -0.001397	    0.000724	   -0.003205	   -0.001582	   -0.004787	   -0.000007	   -0.009919	   -0.009926	    0.033645	    0.070497	    0.104141
     0.975	0	0	    0	    0.019808	   -0.004352	    0.015456	    0.004965	    0.004117	    0.009082	   -0.002396	    0.013254	    0.010858	    0.018021	    0.000264	    0.018286	    0.022246	   -0.001238	    0.021008	    0.001787	    0.016641	    0.018428	    0.026192	    0.050959	    0.077151	    0.010225	   -0.015597	   -0.005372	    0.009835	    0.001983	    0.011818	   -0.028257	    0.087261	    0.059005	    0.006064	   -0.001695	    0.004368	    0.004231	   -0.001645	    0.002586	    0.003866	    0.015333	    0.019199	    0.001474	   -0.000908	    0.000566	   -0.035902	   -0.093324	   -0.129226	    0.012015	   -0.002066	    0.009949	    0.003744	    0.024240	    0.027984	    0.015752	   -0.030662	   -0.014910	    0.004143	   -0.000097	    0.004046	    0.004803	   -0.001553	    0.003250	    0.021965	    0.004508	    0.026473	    0.024492	    0.032425	    0.056918
     1.050	0	0	    0	    0.022273	    0.011382	    0.033655	    0.006037	    0.007364	    0.013402	   -0.000343	    0.014594	    0.014251	    0.016699	    0.003053	    0.019752	    0.013129	    0.010844	    0.023972	    0.003745	    0.019811	    0.023556	    0.030202	    0.057854	    0.088056	    0.020221	    0.000029	    0.020250	    0.008476	    0.005943	    0.014419	   -0.017219	    0.084814	    0.067596	    0.007573	   -0.002186	    0.005387	    0.005807	   -0.001268	    0.004539	   -0.000171	    0.019380	    0.019210	    0.001891	    0.006232	    0.008123	   -0.045519	   -0.095099	   -0.140618	    0.023981	    0.013957	    0.037938	   -0.007863	    0.038896	    0.031033	    0.013281	   -0.026370	   -0.013089	    0.004898	    0.000845	    0.005743	    0.008147	    0.001866	    0.010013	    0.039960	    0.034438	    0.074398	    0.044221	    0.038887	    0.083108
     1.125	0	0	    0	    0.020153	    0.019293	    0.039446	    0.012257	    0.006486	    0.018743	    0.008026	    0.008104	    0.016130	    0.018493	    0.006371	    0.024864	    0.015914	    0.012189	    0.028103	    0.002742	    0.025468	    0.028210	    0.021868	    0.060440	    0.082309	    0.023453	    0.009923	    0.033376	    0.010330	    0.004662	    0.014991	   -0.000122	    0.069442	    0.069319	    0.010350	   -0.001595	    0.008756	    0.005297	   -0.000612	    0.004685	    0.002812	    0.017355	    0.020167	    0.008812	    0.007348	    0.016160	   -0.043518	   -0.082953	   -0.126471	    0.038336	    0.024741	    0.063077	   -0.003927	    0.034838	    0.030912	    0.011559	   -0.023494	   -0.011935	    0.006196	    0.001031	    0.007226	    0.010500	    0.002276	    0.012776	    0.042863	    0.045422	    0.088285	    0.030844	    0.061117	    0.091961
     1.200	0	0	    0	    0.028755	    0.017340	    0.046095	    0.013575	    0.006464	    0.020039	    0.008468	    0.007113	    0.015581	    0.018771	    0.004897	    0.023668	    0.016540	    0.011427	    0.027966	   -0.000308	    0.028639	    0.028331	    0.007974	    0.058591	    0.066565	    0.029744	    0.009529	    0.039272	    0.011092	    0.005801	    0.016894	   -0.006587	    0.067452	    0.060865	    0.009191	    0.000188	    0.009379	    0.005583	   -0.000187	    0.005396	    0.002476	    0.019928	    0.022405	    0.002828	    0.006418	    0.009247	   -0.044110	   -0.094790	   -0.138900	    0.035075	    0.032140	    0.067215	   -0.006000	    0.033896	    0.027896	    0.013315	   -0.028067	   -0.014751	    0.005591	    0.002303	    0.007894	    0.010380	    0.004025	    0.014405	    0.036758	    0.047055	    0.083813	   -0.018265	    0.054079	    0.035814
     1.275	0	0	    0	    0.020473	    0.010149	    0.030622	    0.011827	    0.004931	    0.016758	    0.012806	    0.002589	    0.015395	    0.016589	    0.006534	    0.023123	    0.015594	    0.004991	    0.020585	    0.006402	    0.019013	    0.025415	    0.008363	    0.019899	    0.028262	    0.000382	    0.002794	    0.003176	    0.012337	    0.002883	    0.015221	   -0.012584	    0.067864	    0.055280	    0.009639	    0.000067	    0.009706	    0.004661	   -0.001051	    0.003610	    0.006593	    0.013921	    0.020514	    0.001925	    0.003336	    0.005261	   -0.010408	   -0.095420	   -0.105827	    0.022946	    0.019306	    0.042252	    0.002823	    0.016994	    0.019817	    0.014252	   -0.032007	   -0.017755	    0.004382	    0.001624	    0.006006	    0.007358	    0.004146	    0.011504	    0.009651	    0.027435	    0.037086	   -0.041723	   -0.015878	   -0.057601
     1.350	0	0	    0	    0.016325	    0.005992	    0.022317	    0.005413	    0.006255	    0.011668	   -0.001093	    0.012491	    0.011398	    0.016832	    0.002664	    0.019496	    0.014410	    0.006010	    0.020420	    0.004116	    0.017473	    0.021588	    0.019104	    0.029203	    0.048307	    0.000854	   -0.008299	   -0.007445	    0.006082	    0.007456	    0.013538	    0.000832	    0.058367	    0.059199	    0.009150	   -0.000331	    0.008819	    0.002986	   -0.001313	    0.001674	    0.003878	    0.018187	    0.022065	    0.009828	    0.021008	    0.030836	    0.022955	   -0.058253	   -0.035298	    0.005069	    0.005416	    0.010485	   -0.008630	    0.026259	    0.017629	    0.010238	   -0.025726	   -0.015487	    0.003087	    0.000954	    0.004041	   -0.001699	    0.000307	   -0.001392	   -0.002352	    0.006990	    0.004638	    0.003906	   -0.023355	   -0.019449
     1.425	0	0	    0	   -0.002432	    0.021221	    0.018789	    0.008082	    0.001153	    0.009235	   -0.001094	    0.011632	    0.010538	    0.011640	    0.006345	    0.017985	    0.007506	    0.010970	    0.018476	    0.005958	    0.008357	    0.014315	    0.032845	    0.040653	    0.073497	   -0.009325	   -0.001253	   -0.010579	    0.005713	    0.005575	    0.011287	   -0.005467	    0.070296	    0.064829	    0.007793	   -0.000243	    0.007550	    0.000651	    0.000736	    0.001387	    0.006276	    0.017584	    0.023860	    0.010369	    0.013949	    0.024318	    0.020309	   -0.045738	   -0.025429	    0.001355	    0.000290	    0.001644	   -0.007794	    0.025643	    0.017849	    0.009155	   -0.023670	   -0.014515	    0.002260	    0.000650	    0.002910	   -0.003963	   -0.002719	   -0.006682	   -0.012972	   -0.003487	   -0.016459	    0.026271	    0.035122	    0.061393
     1.500	0	0	    0	    0.014046	    0.002916	    0.016962	    0.007467	    0.001208	    0.008675	    0.003886	    0.007155	    0.011041	    0.009866	    0.006606	    0.016472	    0.006804	    0.008654	    0.015458	    0.008414	   -0.000828	    0.007586	    0.033275	    0.041950	    0.075226	   -0.006563	   -0.004397	   -0.010960	    0.003881	    0.006000	    0.009881	   -0.013265	    0.060825	    0.047560	    0.006115	   -0.000185	    0.005930	    0.000076	   -0.000334	   -0.000258	    0.000460	    0.020677	    0.021137	    0.002279	    0.024322	    0.026601	    0.017589	   -0.003737	    0.013852	   -0.000939	   -0.002775	   -0.003714	   -0.007588	    0.018492	    0.010904	    0.012307	   -0.028766	   -0.016459	    0.001718	    0.000184	    0.001903	   -0.005841	   -0.003410	   -0.009251	   -0.019776	   -0.008580	   -0.028355	    0.053454	    0.040724	    0.094178
     1.575	0	0	    0	    0.021000	   -0.013441	    0.007559	    0.002667	    0.001551	    0.004218	    0.001670	    0.005168	    0.006838	    0.010195	    0.003537	    0.013732	    0.011200	    0.000432	    0.011632	    0.011511	   -0.013762	   -0.002251	    0.048178	    0.033025	    0.081203	   -0.002705	   -0.011928	   -0.014633	    0.004497	    0.001773	    0.006270	    0.003795	    0.057179	    0.060974	    0.003514	   -0.000608	    0.002906	   -0.000155	   -0.001381	   -0.001536	    0.001535	    0.017419	    0.018954	    0.001042	    0.032614	    0.033656	    0.010043	    0.030027	    0.040070	   -0.006392	   -0.002875	   -0.009267	   -0.013814	    0.029764	    0.015950	    0.007577	   -0.022507	   -0.014930	    0.000145	    0.000585	    0.000730	   -0.007412	   -0.003593	   -0.011005	   -0.024267	   -0.009837	   -0.034105	    0.051156	    0.048791	    0.099947
     1.650	0	0	    0	    0.012878	   -0.006436	    0.006443	    0.002364	    0.001029	    0.003393	   -0.000360	    0.005981	    0.005622	    0.009839	    0.002249	    0.012088	    0.007088	    0.004618	    0.011706	    0.007889	   -0.007447	    0.000442	    0.037898	    0.044786	    0.082683	   -0.013909	   -0.006861	   -0.020769	    0.002130	    0.002858	    0.004987	   -0.009237	    0.063831	    0.054594	    0.003753	   -0.000844	    0.002909	   -0.001840	   -0.001936	   -0.003776	   -0.000761	    0.018810	    0.018049	    0.000151	    0.029014	    0.029164	   -0.012991	    0.040615	    0.027624	   -0.006852	   -0.005869	   -0.012720	   -0.013841	    0.031571	    0.017731	    0.012503	   -0.026634	   -0.014131	   -0.000627	    0.000760	    0.000133	   -0.010195	   -0.002411	   -0.012606	   -0.026551	   -0.010144	   -0.036695	    0.035115	    0.051827	    0.086942
     1.725	0	0	    0	    0.013048	   -0.005038	    0.008010	   -0.001254	    0.002187	    0.000933	   -0.002470	    0.004769	    0.002299	    0.008830	    0.004169	    0.012999	    0.008698	    0.004147	    0.012845	    0.008258	   -0.003077	    0.005181	    0.036251	    0.023530	    0.059781	   -0.000457	   -0.020486	   -0.020943	    0.000920	    0.001254	    0.002173	   -0.020660	    0.069254	    0.048594	    0.005119	   -0.002265	    0.002855	   -0.003449	   -0.002666	   -0.006114	   -0.003243	    0.019423	    0.016180	    0.000405	   -0.001660	   -0.001255	    0.023887	   -0.075788	   -0.051901	   -0.007909	   -0.004746	   -0.012654	   -0.014962	    0.030765	    0.015803	    0.010208	   -0.031214	   -0.021006	   -0.000691	    0.000229	   -0.000462	   -0.010728	   -0.003754	   -0.014482	   -0.015019	   -0.011117	   -0.026136	   -0.007945	    0.019721	    0.011776
     1.800	0	0	    0	    0.013032	    0.011846	    0.024878	    0.002625	    0.003409	    0.006034	   -0.001773	    0.006032	    0.004260	    0.014810	    0.005437	    0.020248	    0.009701	    0.013598	    0.023299	    0.000747	    0.018556	    0.019304	    0.032779	    0.051247	    0.084025	    0.008724	   -0.012070	   -0.003346	    0.002676	    0.001869	    0.004546	   -0.020717	    0.077995	    0.057278	    0.008378	   -0.002632	    0.005746	    0.002064	   -0.002622	   -0.000558	   -0.006563	    0.017806	    0.011243	    0.006965	    0.010039	    0.017004	   -0.013221	   -0.067248	   -0.080468	    0.010539	   -0.004243	    0.006296	   -0.006497	    0.022290	    0.015793	    0.015027	   -0.031753	   -0.016726	    0.002715	    0.000583	    0.003298	   -0.004333	   -0.005027	   -0.009360	    0.018983	   -0.000755	    0.018229	    0.029888	    0.001458	    0.031345
     1.875	0	0	    0	    0.018101	    0.021039	    0.039140	    0.007047	    0.009967	    0.017015	   -0.000524	    0.021827	    0.021303	    0.020193	    0.006930	    0.027123	    0.012683	    0.015766	    0.028449	   -0.006106	    0.037135	    0.031030	    0.031101	    0.083514	    0.114615	    0.019833	    0.005047	    0.024881	    0.011404	    0.002937	    0.014341	   -0.025393	    0.102466	    0.077073	    0.010409	   -0.000095	    0.010313	    0.005604	   -0.001571	    0.004033	    0.002830	    0.018439	    0.021269	    0.019994	    0.012956	    0.032951	   -0.019751	   -0.083069	   -0.102820	    0.036181	    0.013092	    0.049274	    0.003058	    0.019407	    0.022465	    0.015572	   -0.029202	   -0.013630	    0.005645	    0.002456	    0.008101	    0.005919	    0.000492	    0.006410	    0.051982	    0.037148	    0.089129	    0.047973	    0.043156	    0.091129
     1.950	0	0	    0	    0.022008	    0.016970	    0.038978	    0.016247	    0.004517	    0.020764	    0.016611	    0.004015	    0.020626	    0.021373	    0.007244	    0.028617	    0.017317	    0.009889	    0.027205	   -0.001227	    0.027891	    0.026664	    0.038703	    0.060486	    0.099189	    0.020933	    0.012428	    0.033362	    0.014573	    0.004598	    0.019171	   -0.004280	    0.074621	    0.070341	    0.011171	    0.000424	    0.011595	    0.006494	   -0.000772	    0.005722	    0.006449	    0.019845	    0.026295	    0.013976	    0.017118	    0.031093	   -0.016531	   -0.072140	   -0.088672	    0.045583	    0.028040	    0.073623	   -0.001684	    0.033347	    0.031664	    0.013970	   -0.026111	   -0.012141	    0.006988	    0.002695	    0.009683	    0.010038	    0.003239	    0.013278	    0.056061	    0.048830	    0.104891	    0.038780	    0.054224	    0.093004
     2.025	0	0	    0	    0.030990	    0.002977	    0.033967	    0.014291	    0.007661	    0.021952	    0.004924	    0.016805	    0.021729	    0.022547	    0.006444	    0.028991	    0.015407	    0.009601	    0.025008	   -0.007013	    0.036365	    0.029352	    0.013836	    0.072685	    0.086520	    0.028229	    0.006772	    0.035002	    0.017269	    0.002866	    0.020134	   -0.012836	    0.083057	    0.070221	    0.011113	    0.000524	    0.011637	    0.007626	   -0.001519	    0.006107	    0.006592	    0.022266	    0.028858	    0.008390	    0.022522	    0.030912	   -0.035977	   -0.072523	   -0.108501	    0.046188	    0.031566	    0.077754	   -0.000848	    0.029592	    0.028744	    0.016313	   -0.029784	   -0.013470	    0.005969	    0.003729	    0.009698	    0.012286	    0.003715	    0.016002	    0.046871	    0.053521	    0.100391	    0.001883	    0.053541	    0.055424
     2.100	0	0	    0	    0.023398	    0.008235	    0.031632	    0.014497	    0.007168	    0.021665	    0.007191	    0.015309	    0.022500	    0.022865	    0.004455	    0.027319	    0.016684	    0.005279	    0.021963	    0.000688	    0.031194	    0.031882	    0.027261	    0.049443	    0.076704	    0.006440	    0.000827	    0.007267	    0.014948	    0.005736	    0.020684	   -0.007142	    0.068956	    0.061813	    0.011173	    0.000458	    0.011631	    0.006105	   -0.000391	    0.005714	    0.007091	    0.019485	    0.026576	    0.023062	    0.004010	    0.027072	    0.037549	   -0.094734	   -0.057185	    0.028164	    0.025036	    0.053200	   -0.002149	    0.025504	    0.023356	    0.009446	   -0.025141	   -0.015695	    0.004934	    0.002556	    0.007491	    0.008596	    0.003571	    0.012167	    0.018924	    0.032437	    0.051361	   -0.019844	   -0.009798	   -0.029642
     2.175	0	0	    0	    0.016200	    0.008708	    0.024908	    0.008468	    0.010730	    0.019197	   -0.003033	    0.019255	    0.016223	    0.021508	    0.003235	    0.024744	    0.018207	    0.006060	    0.024266	    0.001562	    0.024414	    0.025975	    0.021100	    0.079127	    0.100227	    0.001608	   -0.006945	   -0.005337	    0.014012	    0.007840	    0.021852	   -0.022480	    0.073253	    0.050774	    0.011497	    0.000405	    0.011901	    0.006487	   -0.000539	    0.005947	    0.007719	    0.021043	    0.028762	    0.018345	    0.024159	    0.042504	    0.050595	   -0.050139	    0.000456	    0.013177	    0.006045	    0.019222	   -0.003950	    0.015170	    0.011221	    0.014479	   -0.034514	   -0.020035	    0.005782	    0.001633	    0.007415	    0.000291	    0.000978	    0.001268	    0.005419	    0.001274	    0.006693	    0.035442	    0.010357	    0.045799
     2.250	0	0	    0	    0.025979	   -0.004529	    0.021450	    0.012821	    0.004378	    0.017199	    0.005293	    0.012818	    0.018111	    0.020471	    0.005452	    0.025923	    0.019816	    0.000274	    0.020090	    0.017176	    0.002454	    0.019630	    0.049681	    0.048878	    0.098559	    0.003705	   -0.010593	   -0.006888	    0.016158	    0.006002	    0.022160	    0.006063	    0.056064	    0.062128	    0.011987	   -0.000807	    0.011180	    0.004470	   -0.000595	    0.003875	    0.010709	    0.021180	    0.031888	    0.019377	    0.029128	    0.048505	    0.045746	   -0.028453	    0.017292	    0.011079	    0.003396	    0.014475	   -0.003774	    0.021872	    0.018098	    0.021945	   -0.036395	   -0.014450	    0.005803	    0.001121	    0.006923	   -0.000629	   -0.002294	   -0.002923	    0.000086	   -0.003064	   -0.002978	    0.062859	    0.036644	    0.099502
     2.325	0	0	    0	    0.023341	   -0.004635	    0.018706	    0.012750	    0.001516	    0.014265	    0.000171	    0.014388	    0.014559	    0.021899	    0.002743	    0.024642	    0.017187	   -0.000760	    0.016427	    0.017794	   -0.003905	    0.013890	    0.054926	    0.038148	    0.093075	   -0.002518	   -0.008959	   -0.011478	    0.013339	    0.007436	    0.020774	   -0.008097	    0.066617	    0.058519	    0.010666	   -0.000935	    0.009732	    0.004022	   -0.001716	    0.002306	    0.010017	    0.019225	    0.029243	    0.013574	    0.034837	    0.048411	    0.034969	   -0.012350	    0.022618	    0.007068	   -0.000559	    0.006509	   -0.009599	    0.030517	    0.020918	    0.013813	   -0.028247	   -0.014433	    0.005112	    0.000991	    0.006103	   -0.001384	   -0.004385	   -0.005769	   -0.005598	   -0.004864	   -0.010462	    0.067539	    0.038559	    0.106098
     2.400	0	0	    0	    0.024487	   -0.008577	    0.015910	    0.007814	    0.002615	    0.010429	    0.005596	    0.005894	    0.011490	    0.020375	    0.002426	    0.022801	    0.019034	   -0.001974	    0.017060	    0.015907	   -0.005238	    0.010669	    0.053547	    0.043157	    0.096705	    0.000916	   -0.011925	   -0.011008	    0.010954	    0.006712	    0.017666	   -0.003902	    0.071124	    0.067223	    0.008721	   -0.000011	    0.008710	    0.004448	   -0.002944	    0.001504	    0.007530	    0.021247	    0.028777	    0.011256	    0.032832	    0.044088	    0.023435	    0.006245	    0.029680	    0.004966	   -0.002386	    0.002580	   -0.009102	    0.029018	    0.019916	    0.011072	   -0.023323	   -0.012252	    0.003527	    0.001880	    0.005407	   -0.003904	   -0.003502	   -0.007405	   -0.008411	   -0.004799	   -0.013210	    0.046144	    0.054142	    0.100286
     2.475	0	0	    0	    0.020035	   -0.008858	    0.011177	    0.005371	    0.003152	    0.008523	    0.000095	    0.011442	    0.011537	    0.018355	    0.004528	    0.022882	    0.013285	    0.004223	    0.017508	    0.014909	   -0.004018	    0.010891	    0.054815	    0.042649	    0.097464	   -0.007819	   -0.012776	   -0.020595	    0.007808	    0.006056	    0.013864	   -0.009686	    0.074889	    0.065203	    0.009698	   -0.000809	    0.008889	    0.002061	   -0.002167	   -0.000106	    0.005360	    0.020802	    0.026163	    0.004311	    0.032351	    0.036661	    0.037633	   -0.043881	   -0.006247	    0.001083	   -0.002635	   -0.001552	   -0.008284	    0.027130	    0.018846	    0.014843	   -0.028392	   -0.013550	    0.003815	    0.001667	    0.005482	   -0.005518	   -0.003479	   -0.008998	   -0.001801	   -0.010371	   -0.012172	    0.021587	    0.045708	    0.067296
     2.550	0	0	    0	    0.024953	   -0.014266	    0.010686	    0.009793	   -0.003022	    0.006771	    0.013844	   -0.002640	    0.011204	    0.017729	    0.007116	    0.024845	    0.011551	    0.003190	    0.014741	    0.006543	    0.011338	    0.017881	    0.052522	    0.034419	    0.086941	    0.005589	   -0.017265	   -0.011676	    0.009022	    0.004861	    0.013884	    0.009073	    0.044262	    0.053335	    0.008510	    0.000644	    0.009154	    0.001291	   -0.002094	   -0.000803	    0.004124	    0.016045	    0.020169	    0.025810	    0.010793	    0.036603	    0.010149	   -0.056941	   -0.046792	    0.008494	   -0.000551	    0.007944	   -0.004192	    0.018027	    0.013836	    0.008678	   -0.025410	   -0.016733	    0.003326	    0.002629	    0.005955	   -0.003729	   -0.002808	   -0.006537	    0.010055	    0.003616	    0.013670	    0.029213	    0.000180	    0.029393
     2.625	0	0	    0	    0.015878	    0.013440	    0.029318	    0.006431	    0.005237	    0.011668	   -0.003423	    0.016693	    0.013269	    0.015846	    0.009280	    0.025126	    0.006837	    0.014023	    0.020860	   -0.009922	    0.034972	    0.025050	    0.046196	    0.070703	    0.116899	    0.012492	    0.004355	    0.016848	    0.007119	    0.008049	    0.015168	   -0.023835	    0.087565	    0.063730	    0.007707	    0.001173	    0.008879	    0.000510	   -0.001337	   -0.000827	   -0.004533	    0.021258	    0.016725	    0.020081	    0.025378	    0.045459	   -0.007931	   -0.086313	   -0.094244	    0.027902	    0.010048	    0.037950	   -0.012993	    0.033524	    0.020531	    0.013784	   -0.030989	   -0.017205	    0.002479	    0.003318	    0.005797	   -0.001571	   -0.000388	   -0.001958	    0.038224	    0.034048	    0.072272	    0.058038	    0.045984	    0.104023
     2.700	0	0	    0	    0.021439	    0.013277	    0.034715	    0.001327	    0.012721	    0.014048	   -0.007513	    0.019193	    0.011680	    0.016123	    0.008919	    0.025041	    0.009537	    0.010500	    0.020037	   -0.013226	    0.037834	    0.024607	    0.023136	    0.092338	    0.115474	    0.016319	    0.009804	    0.026123	    0.005796	    0.007755	    0.013551	   -0.024931	    0.095778	    0.070847	    0.007255	    0.001201	    0.008456	    0.001174	   -0.002276	   -0.001102	   -0.006417	    0.024397	    0.017981	    0.018719	    0.027045	    0.045764	   -0.012394	   -0.066088	   -0.078482	    0.036702	    0.030279	    0.066981	   -0.013169	    0.038540	    0.025371	    0.011774	   -0.026895	   -0.015122	    0.002433	    0.003065	    0.005498	   -0.002051	    0.002369	    0.000318	    0.038511	    0.051062	    0.089572	    0.044974	    0.055854	    0.100828
     2.775	0	0	    0	    0.022210	    0.010623	    0.032833	    0.009194	    0.005189	    0.014383	    0.004084	   -0.000402	    0.003682	    0.024387	    0.000499	    0.024886	    0.017807	    0.002264	    0.020071	   -0.007953	    0.033772	    0.025819	    0.013749	    0.062900	    0.076649	    0.016350	    0.010932	    0.027283	    0.007864	    0.003646	    0.011510	   -0.028420	    0.101511	    0.073092	    0.008531	   -0.000763	    0.007768	    0.001091	   -0.003075	   -0.001983	   -0.002539	    0.020520	    0.017981	    0.006992	    0.020620	    0.027612	    0.008460	   -0.088539	   -0.080080	    0.029401	    0.029271	    0.058672	    0.000288	    0.019352	    0.019640	    0.011996	   -0.029213	   -0.017216	    0.001523	    0.003215	    0.004739	   -0.002064	    0.001092	   -0.000972	    0.016435	    0.045435	    0.061870	   -0.012017	    0.023098	    0.011082
     2.850	0	0	    0	    0.017491	    0.003652	    0.021143	    0.011361	    0.004152	    0.015513	    0.010296	    0.010996	    0.021293	    0.023895	    0.005425	    0.029320	    0.011664	    0.005711	    0.017375	    0.006008	    0.025834	    0.031842	    0.016780	    0.041512	    0.058293	    0.005766	   -0.005981	   -0.000215	    0.010611	    0.003775	    0.014386	   -0.013218	    0.077623	    0.064405	    0.012197	    0.000134	    0.012331	    0.004153	   -0.002678	    0.001475	    0.004957	    0.017793	    0.022750	    0.026855	    0.014004	    0.040859	    0.026490	   -0.051212	   -0.024722	    0.012813	    0.022218	    0.035031	   -0.015826	    0.037061	    0.021236	    0.015192	   -0.031536	   -0.016344	    0.004134	    0.002402	    0.006536	   -0.002035	   -0.000004	   -0.002039	    0.010052	    0.018937	    0.028989	    0.009571	   -0.021415	   -0.011845
     2.925	0	0	    0	    0.008775	    0.013056	    0.021832	    0.012594	    0.005380	    0.017974	    0.012321	    0.008481	    0.020802	    0.019573	    0.008848	    0.028421	    0.014659	    0.006266	    0.020925	    0.012632	    0.014420	    0.027052	    0.040071	    0.043493	    0.083564	    0.002157	   -0.002387	   -0.000230	    0.016185	    0.004864	    0.021048	   -0.004790	    0.077622	    0.072832	    0.012606	    0.001090	    0.013696	    0.005340	   -0.001924	    0.003415	    0.012194	    0.019119	    0.031313	    0.037219	    0.019145	    0.056364	    0.053450	   -0.050762	    0.002688	    0.017182	    0.002521	    0.019703	   -0.005450	    0.023106	    0.017656	    0.013215	   -0.029130	   -0.015915	    0.005566	    0.002867	    0.008433	   -0.000765	   -0.002487	   -0.003252	    0.011534	    0.003532	    0.015066	    0.063395	    0.013893	    0.077288
     3.000	0	0	    0	    0.013053	   -0.001725	    0.011328	    0.010718	    0.005839	    0.016557	    0.005623	    0.016817	    0.022440	    0.020612	    0.007304	    0.027916	    0.013170	    0.007000	    0.020171	    0.012892	    0.009045	    0.021937	    0.035929	    0.059324	    0.095253	    0.001162	   -0.004778	   -0.003616	    0.016572	    0.006082	    0.022654	   -0.020499	    0.094001	    0.073502	    0.012477	    0.001135	    0.013612	    0.004438	   -0.001116	    0.003322	    0.014875	    0.023143	    0.038018	    0.027049	    0.032921	    0.059970	    0.043079	   -0.020823	    0.022256	    0.013143	    0.001801	    0.014945	   -0.004740	    0.024833	    0.020094	    0.013834	   -0.025478	   -0.011645	    0.005816	    0.003117	    0.008934	   -0.001383	   -0.003381	   -0.004764	    0.007418	    0.000050	    0.007468	    0.094742	    0.054047	    0.148788
     3.075	0	0	    0	    0.016274	   -0.002422	    0.013852	    0.009847	    0.007156	    0.017004	    0.005731	    0.015358	    0.021090	    0.015981	    0.010454	    0.026436	    0.011529	    0.007484	    0.019012	    0.016132	    0.005010	    0.021142	    0.054943	    0.053904	    0.108847	   -0.003196	   -0.000904	   -0.004100	    0.016701	    0.007322	    0.024024	   -0.005688	    0.076656	    0.070968	    0.011060	    0.001497	    0.012557	    0.004009	   -0.001710	    0.002298	    0.014651	    0.025334	    0.039985	    0.023454	    0.047441	    0.070894	    0.035573	    0.008955	    0.044528	    0.010706	   -0.000915	    0.009791	   -0.002457	    0.019782	    0.017325	    0.011349	   -0.024793	   -0.013444	    0.005822	    0.002784	    0.008606	   -0.002471	   -0.004267	   -0.006738	    0.000629	   -0.000184	    0.000444	    0.100405	    0.068837	    0.169242
     3.150	0	0	    0	    0.009006	    0.002611	    0.011617	    0.007595	    0.005830	    0.013425	    0.004449	    0.015630	    0.020078	    0.018319	    0.009981	    0.028300	    0.014162	    0.005246	    0.019408	    0.011455	    0.007716	    0.019172	    0.045423	    0.054350	    0.099773	   -0.004761	   -0.005729	   -0.010489	    0.014544	    0.006848	    0.021392	    0.007304	    0.041651	    0.048955	    0.012428	    0.001339	    0.013767	    0.004714	   -0.003048	    0.001666	    0.015773	    0.024922	    0.040695	    0.017121	    0.045345	    0.062466	    0.043195	   -0.032568	    0.010626	    0.010283	   -0.002454	    0.007829	   -0.005227	    0.026322	    0.021095	    0.015165	   -0.027949	   -0.012783	    0.006912	    0.003057	    0.009970	   -0.001382	   -0.005213	   -0.006595	    0.005563	   -0.004823	    0.000740	    0.059661	    0.061775	    0.121436
     3.225	0	0	    0	    0.026349	   -0.010979	    0.015370	    0.009140	    0.004849	    0.013989	    0.006404	    0.012319	    0.018724	    0.025482	    0.005234	    0.030717	    0.019227	    0.005306	    0.024532	    0.005284	    0.029928	    0.035212	    0.061641	    0.052674	    0.114315	    0.023029	   -0.015511	    0.007518	    0.014698	    0.006089	    0.020787	   -0.012677	    0.085081	    0.072405	    0.013858	    0.000289	    0.014146	    0.006003	   -0.003096	    0.002907	    0.011604	    0.025887	    0.037492	    0.031584	    0.027388	    0.058972	   -0.006456	   -0.050612	   -0.057068	    0.019296	    0.004842	    0.024137	   -0.003898	    0.024214	    0.020316	    0.019106	   -0.033626	   -0.014520	    0.007274	    0.003919	    0.011193	    0.001262	   -0.002870	   -0.001608	    0.032293	    0.004140	    0.036433	    0.084352	    0.020380	    0.104733
     3.300	0	0	    0	    0.027151	    0.003515	    0.030666	    0.012486	    0.006859	    0.019345	    0.006574	    0.019187	    0.025761	    0.027209	    0.005333	    0.032542	    0.019987	    0.007104	    0.027092	   -0.000254	    0.036233	    0.035979	    0.056447	    0.083679	    0.140126	    0.028490	    0.002540	    0.031030	    0.014262	    0.007487	    0.021749	   -0.017412	    0.094903	    0.077491	    0.012638	    0.002295	    0.014933	    0.006213	   -0.003026	    0.003188	    0.007893	    0.025702	    0.033595	    0.046364	    0.031764	    0.078128	    0.013465	   -0.066411	   -0.052945	    0.046437	    0.019965	    0.066402	   -0.005365	    0.030501	    0.025136	    0.014307	   -0.026514	   -0.012206	    0.006231	    0.005190	    0.011421	    0.006622	   -0.000376	    0.006246	    0.057750	    0.050883	    0.108634	    0.094113	    0.079933	    0.174046
     3.375	0	0	    0	    0.027617	    0.004674	    0.032291	    0.013202	    0.006671	    0.019873	    0.008101	    0.013288	    0.021389	    0.024086	    0.008607	    0.032694	    0.015921	    0.006795	    0.022716	   -0.002266	    0.037458	    0.035192	    0.057709	    0.070083	    0.127791	    0.025297	    0.007656	    0.032953	    0.016456	    0.003893	    0.020349	   -0.002537	    0.069122	    0.066584	    0.013041	    0.001568	    0.014608	    0.005041	   -0.002340	    0.002700	    0.006778	    0.027364	    0.034143	    0.026876	    0.047989	    0.074865	   -0.001463	   -0.062068	   -0.063531	    0.048285	    0.032997	    0.081282	    0.000109	    0.018677	    0.018786	    0.019444	   -0.034856	   -0.015413	    0.006032	    0.005378	    0.011410	    0.007360	    0.000246	    0.007606	    0.055711	    0.054362	    0.110073	    0.053038	    0.084186	    0.137225
     3.450	0	0	    0	    0.022685	    0.000506	    0.023191	    0.014930	    0.002913	    0.017843	    0.018621	    0.001514	    0.020135	    0.018976	    0.009380	    0.028357	    0.015921	    0.006795	    0.022716	    0.011434	    0.025484	    0.036918	    0.040504	    0.039377	    0.079881	    0.004308	    0.004236	    0.008544	    0.012814	    0.007050	    0.019864	    0.019185	    0.052518	    0.071703	    0.011512	    0.001382	    0.012894	    0.003167	   -0.002218	    0.000949	    0.010134	    0.023613	    0.033747	    0.023040	    0.024287	    0.047327	    0.024180	   -0.075077	   -0.050897	    0.031633	    0.032774	    0.064407	   -0.002878	    0.021998	    0.019120	    0.009976	   -0.025111	   -0.015135	    0.003698	    0.004825	    0.008523	    0.003957	    0.001109	    0.005066	    0.020178	    0.035629	    0.055807	    0.011660	    0.021375	    0.033035
     3.525	0	0	    0	    0.007632	    0.005967	    0.013599	    0.007966	    0.006745	    0.014711	    0.012100	    0.004783	    0.016883	    0.017154	    0.008518	    0.025672	    0.013447	    0.003959	    0.017406	    0.010595	    0.022032	    0.032627	    0.048308	    0.044176	    0.092485	   -0.004589	   -0.006975	   -0.011564	    0.013377	    0.004668	    0.018045	   -0.010262	    0.086956	    0.076694	    0.009277	    0.002119	    0.011397	    0.000876	   -0.002235	   -0.001360	    0.008231	    0.026697	    0.034928	    0.028017	    0.036420	    0.064437	    0.058916	   -0.037130	    0.021786	    0.012906	    0.005261	    0.018167	   -0.008008	    0.022441	    0.014433	    0.008795	   -0.025192	   -0.016397	    0.002191	    0.003763	    0.005955	   -0.005868	   -0.001121	   -0.006990	   -0.000830	    0.003092	    0.002262	    0.069878	    0.022940	    0.092819
     3.600	0	0	    0	    0.023093	   -0.011878	    0.011215	    0.005666	    0.003933	    0.009599	   -0.001531	    0.014782	    0.013251	    0.020501	    0.002716	    0.023217	    0.016283	    0.000999	    0.017282	    0.008813	    0.013514	    0.022327	    0.045533	    0.061175	    0.106708	    0.000916	   -0.011925	   -0.011008	    0.008269	    0.009547	    0.017816	   -0.012584	    0.067864	    0.055280	    0.007738	    0.001544	    0.009281	    0.001636	   -0.003437	   -0.001801	    0.008861	    0.030005	    0.038866	    0.022789	    0.034892	    0.057680	    0.059800	   -0.022484	    0.037316	    0.004507	    0.005658	    0.010165	   -0.012553	    0.022641	    0.010088	    0.016104	   -0.035444	   -0.019339	    0.002075	    0.002027	    0.004102	   -0.009301	   -0.004083	   -0.013384	   -0.010405	   -0.001173	   -0.011577	    0.109206	    0.055060	    0.164266
     3.675	0	0	    0	    0.005169	    0.009137	    0.014306	    0.002021	    0.007112	    0.009132	   -0.005759	    0.018738	    0.012979	    0.011142	    0.008531	    0.019673	    0.004283	    0.011894	    0.016177	    0.002774	    0.015422	    0.018196	    0.044700	    0.070501	    0.115201	   -0.004571	   -0.007231	   -0.011802	    0.007954	    0.006073	    0.014027	   -0.030612	    0.083385	    0.052772	    0.004331	    0.000905	    0.005236	   -0.001040	   -0.001718	   -0.002758	    0.008476	    0.028593	    0.037070	    0.010515	    0.054235	    0.064750	    0.044669	    0.016113	    0.060782	   -0.000513	    0.004813	    0.004300	   -0.011916	    0.020116	    0.008199	    0.015485	   -0.033828	   -0.018343	    0.000228	    0.002158	    0.002387	   -0.009506	   -0.005933	   -0.015439	   -0.014720	   -0.005346	   -0.020066	    0.108209	    0.074116	    0.182326
     3.750	0	0	    0	    0.008017	   -0.001983	    0.006034	    0.001875	    0.003212	    0.005088	   -0.000258	    0.005425	    0.005167	    0.009532	    0.007459	    0.016991	    0.004576	    0.009360	    0.013936	    0.009648	    0.004994	    0.014642	    0.061654	    0.042075	    0.103729	   -0.011137	   -0.003759	   -0.014896	    0.004160	    0.007136	    0.011297	   -0.012071	    0.058410	    0.046339	    0.003319	   -0.000699	    0.002620	   -0.002636	   -0.001929	   -0.004565	    0.005853	    0.031667	    0.037520	    0.010218	    0.050729	    0.060947	    0.014366	    0.048626	    0.062992	   -0.005662	    0.004411	   -0.001251	   -0.020426	    0.032081	    0.011656	    0.009209	   -0.030025	   -0.020816	   -0.001092	    0.002243	    0.001151	   -0.012076	   -0.004152	   -0.016227	   -0.018547	   -0.006970	   -0.025517	    0.086182	    0.087730	    0.173912
     3.825	0	0	    0	    0.016724	   -0.014623	    0.002102	    0.001788	   -0.001559	    0.000229	   -0.000494	    0.004439	    0.003945	    0.018471	    0.002596	    0.021067	    0.012415	    0.003707	    0.016122	    0.014134	    0.006885	    0.021019	    0.044595	    0.045665	    0.090261	    0.001659	   -0.018106	   -0.016447	    0.003978	    0.004408	    0.008386	   -0.005728	    0.060280	    0.054552	    0.004694	   -0.001954	    0.002739	   -0.001538	   -0.004757	   -0.006294	    0.005649	    0.026100	    0.031749	    0.027609	    0.012005	    0.039614	    0.030780	   -0.045701	   -0.014921	    0.002388	   -0.004132	   -0.001744	   -0.012373	    0.021064	    0.008691	    0.008407	   -0.025855	   -0.017448	    0.000450	    0.001414	    0.001864	   -0.010895	   -0.005803	   -0.016698	   -0.004143	   -0.002662	   -0.006804	    0.041179	    0.040334	    0.081513
     3.900	0	0	    0	    0.018439	    0.006705	    0.025144	    0.010421	    0.002317	    0.012738	    0.004783	    0.008648	    0.013431	    0.019575	    0.007708	    0.027282	    0.013377	    0.010586	    0.023963	    0.007932	    0.031138	    0.039070	    0.062200	    0.059900	    0.122100	    0.015009	   -0.001973	    0.013036	    0.009898	    0.007234	    0.017132	   -0.007362	    0.067044	    0.059682	    0.009060	   -0.000647	    0.008413	    0.001358	   -0.003630	   -0.002273	    0.003312	    0.028070	    0.031383	    0.033633	    0.040890	    0.074522	    0.002890	   -0.047736	   -0.044846	    0.020710	    0.010638	    0.031348	   -0.008466	    0.025171	    0.016705	    0.009646	   -0.026617	   -0.016971	    0.004151	    0.003270	    0.007420	   -0.001349	   -0.003082	   -0.004431	    0.048280	    0.014019	    0.062299	    0.102486	    0.053097	    0.155583
     3.975	0	0	    0	    0.033100	   -0.010139	    0.022961	    0.015647	    0.001350	    0.016997	    0.009280	    0.010053	    0.019333	    0.027909	    0.004219	    0.032128	    0.022036	    0.002275	    0.024311	    0.011022	    0.032478	    0.043500	    0.063927	    0.067531	    0.131458	    0.031654	    0.001677	    0.033331	    0.016331	    0.005140	    0.021471	    0.009263	    0.055275	    0.064538	    0.010286	    0.000810	    0.011095	    0.005417	   -0.004836	    0.000581	    0.013828	    0.026340	    0.040169	    0.049708	    0.039066	    0.088774	    0.008111	   -0.044428	   -0.036317	    0.047180	    0.025013	    0.072193	   -0.002509	    0.024636	    0.022127	    0.014268	   -0.028429	   -0.014161	    0.005826	    0.004608	    0.010434	    0.006656	    0.000265	    0.006921	    0.064632	    0.052237	    0.116869	    0.090615	    0.099222	    0.189837
     4.050	0	0	    0	    0.027528	    0.007405	    0.034933	    0.020331	    0.004553	    0.024884	    0.016410	    0.008719	    0.025130	    0.028258	    0.005616	    0.033874	    0.017946	    0.009128	    0.027074	    0.013094	    0.039784	    0.052877	    0.061883	    0.075719	    0.137603	    0.027166	    0.012437	    0.039603	    0.019532	    0.008225	    0.027757	    0.012303	    0.067036	    0.079339	    0.011045	    0.002127	    0.013171	    0.005912	   -0.002984	    0.002928	    0.015686	    0.031500	    0.047187	    0.046680	    0.049309	    0.095989	    0.002069	   -0.034078	   -0.032009	    0.050820	    0.040051	    0.090871	   -0.005460	    0.034971	    0.029511	    0.015044	   -0.026253	   -0.011208	    0.008039	    0.004592	    0.012632	    0.010435	    0.001193	    0.011629	    0.064613	    0.059666	    0.124278	    0.073752	    0.104988	    0.178740
     4.125	0	0	    0	    0.010867	    0.009445	    0.020313	    0.017017	    0.006607	    0.023624	    0.012622	    0.011657	    0.024279	    0.023596	    0.007844	    0.031440	    0.012260	    0.010310	    0.022570	    0.014894	    0.038189	    0.053083	    0.050681	    0.077753	    0.128434	    0.013274	    0.016516	    0.029790	    0.018564	    0.010463	    0.029027	   -0.006022	    0.081674	    0.075652	    0.011875	    0.001010	    0.012886	    0.004201	   -0.002621	    0.001580	    0.015315	    0.032951	    0.048267	    0.049521	    0.040082	    0.089603	    0.044173	   -0.070493	   -0.026320	    0.037097	    0.043235	    0.080332	   -0.003601	    0.031299	    0.027698	    0.015868	   -0.030441	   -0.014573	    0.007489	    0.004068	    0.011557	    0.008964	    0.001396	    0.010360	    0.032632	    0.054986	    0.087618	    0.039433	    0.045832	    0.085265
     4.200	0	0	    0	    0.022121	   -0.005631	    0.016490	    0.015336	    0.006323	    0.021659	    0.016867	    0.006364	    0.023231	    0.020246	    0.011401	    0.031647	    0.018333	    0.008619	    0.026953	    0.032070	    0.018125	    0.050195	    0.092157	    0.049196	    0.141354	    0.008208	   -0.002774	    0.005434	    0.020341	    0.010070	    0.030411	    0.024404	    0.045041	    0.069445	    0.012493	    0.001330	    0.013824	    0.005031	   -0.001652	    0.003379	    0.022822	    0.030334	    0.053155	    0.045006	    0.054340	    0.099346	    0.083952	   -0.014645	    0.069307	    0.023256	    0.024391	    0.047647	   -0.007750	    0.028180	    0.020430	    0.012566	   -0.027480	   -0.014913	    0.006851	    0.003522	    0.010372	    0.000684	   -0.001238	   -0.000554	    0.001636	    0.022223	    0.023858	    0.091341	    0.037741	    0.129083
     4.275	0	0	    0	    0.027954	   -0.012166	    0.015789	    0.015525	    0.004709	    0.020234	    0.018008	    0.004498	    0.022506	    0.023624	    0.005078	    0.028702	    0.025515	    0.002795	    0.028310	    0.026561	    0.020334	    0.046895	    0.078703	    0.061123	    0.139825	    0.008692	   -0.006753	    0.001938	    0.022813	    0.009473	    0.032287	    0.008534	    0.056303	    0.064837	    0.011658	    0.001578	    0.013236	    0.006122	   -0.002914	    0.003208	    0.022800	    0.037370	    0.060170	    0.039923	    0.047003	    0.086926	    0.070228	    0.002494	    0.072722	    0.016693	    0.013674	    0.030367	   -0.014173	    0.030688	    0.016515	    0.011756	   -0.029645	   -0.017889	    0.006425	    0.003175	    0.009600	   -0.000232	   -0.004612	   -0.004844	    0.002102	    0.001716	    0.003818	    0.117130	    0.080629	    0.197759
     4.350	0	0	    0	    0.021175	   -0.004328	    0.016846	    0.009778	    0.008155	    0.017933	    0.006641	    0.013340	    0.019981	    0.019157	    0.008471	    0.027628	    0.017685	    0.011699	    0.029384	    0.020494	    0.020677	    0.041171	    0.059870	    0.088225	    0.148095	    0.008817	   -0.004816	    0.004000	    0.021043	    0.008634	    0.029677	   -0.018976	    0.081382	    0.062407	    0.011009	    0.000052	    0.011061	    0.005210	   -0.002558	    0.002652	    0.024479	    0.036149	    0.060628	    0.032765	    0.059094	    0.091860	    0.076691	    0.030366	    0.107057	    0.013498	    0.009305	    0.022802	   -0.000081	    0.018502	    0.018421	    0.019903	   -0.034214	   -0.014311	    0.006384	    0.002305	    0.008689	   -0.000308	   -0.007031	   -0.007339	   -0.003588	    0.001197	   -0.002391	    0.139284	    0.093116	    0.232400
     4.425	0	0	    0	    0.010575	    0.001451	    0.012026	    0.009214	    0.004973	    0.014187	    0.000694	    0.016356	    0.017050	    0.020103	    0.003890	    0.023993	    0.012595	    0.013158	    0.025753	    0.015115	    0.024129	    0.039243	    0.067748	    0.071264	    0.139012	   -0.000937	   -0.002766	   -0.003703	    0.020784	    0.004917	    0.025700	   -0.002863	    0.059132	    0.056268	    0.009171	   -0.000063	    0.009108	    0.003485	   -0.003176	    0.000310	    0.025935	    0.035171	    0.061106	    0.024827	    0.064896	    0.089723	    0.031045	    0.055658	    0.086703	    0.013040	    0.003334	    0.016374	   -0.004816	    0.020557	    0.015741	    0.015935	   -0.034008	   -0.018073	    0.005687	    0.002225	    0.007912	   -0.000841	   -0.008063	   -0.008904	   -0.004440	   -0.002823	   -0.007262	    0.108304	    0.096051	    0.204355
     4.500	0	0	    0	    0.012863	   -0.003129	    0.009733	    0.010042	    0.001416	    0.011458	    0.006362	    0.005817	    0.012179	    0.015285	    0.008857	    0.024142	    0.012056	    0.015485	    0.027540	    0.023184	    0.022562	    0.045746	    0.054417	    0.069784	    0.124201	    0.005930	   -0.011863	   -0.005933	    0.017516	    0.007066	    0.024583	   -0.020717	    0.077995	    0.057278	    0.008291	    0.000320	    0.008611	    0.002742	   -0.002128	    0.000613	    0.020041	    0.036307	    0.056348	    0.035926	    0.035295	    0.071221	    0.055201	   -0.038366	    0.016834	    0.013973	    0.002225	    0.016198	    0.002156	    0.013509	    0.015665	    0.015704	   -0.032556	   -0.016852	    0.005747	    0.002863	    0.008610	   -0.001645	   -0.006542	   -0.008187	    0.012629	   -0.001889	    0.010740	    0.066235	    0.055201	    0.121436
     4.575	0	0	    0	    0.047152	   -0.006812	    0.040339	    0.007245	    0.015457	    0.022702	    0.003246	    0.024226	    0.027472	    0.019472	    0.010571	    0.030042	    0.029764	    0.010814	    0.040578	    0.009315	    0.072515	    0.081830	    0.051168	    0.149563	    0.200732	    0.027445	    0.002822	    0.030267	    0.016263	    0.012200	    0.028463	   -0.052216	    0.186244	    0.134028	    0.008710	    0.001519	    0.010230	    0.007544	   -0.004834	    0.002710	    0.010507	    0.048199	    0.058706	    0.036842	    0.089958	    0.126801	    0.020640	   -0.037857	   -0.017217	    0.028558	    0.024746	    0.053304	   -0.020588	    0.069390	    0.048802	    0.025112	   -0.020639	    0.004473	    0.008449	    0.004369	    0.012818	    0.000281	    0.004781	    0.005062	    0.050592	    0.029519	    0.080111	    0.140494	    0.105602	    0.246097
     4.650	0	0	    0	    0.023048	    0.004344	    0.027393	    0.011460	    0.002399	    0.013859	    0.005156	    0.006878	    0.012034	    0.017065	    0.008403	    0.025468	    0.014491	    0.012941	    0.027432	    0.010189	    0.037439	    0.047627	    0.063629	    0.078726	    0.142355	    0.022958	    0.010580	    0.033538	    0.015097	    0.005496	    0.020592	    0.003297	    0.065317	    0.068614	    0.007400	    0.000549	    0.007949	    0.002500	   -0.003396	   -0.000896	    0.015819	    0.032173	    0.047992	    0.051621	    0.050365	    0.101986	    0.018599	   -0.028519	   -0.009920	    0.048166	    0.034072	    0.082238	   -0.001729	    0.021490	    0.019761	    0.013425	   -0.028910	   -0.015486	    0.004506	    0.003594	    0.008100	    0.005044	   -0.003956	    0.001089	    0.057154	    0.051296	    0.108450	    0.108487	    0.114835	    0.223321
     4.725	0	0	    0	    0.018752	    0.010614	    0.029366	    0.010847	    0.005227	    0.016073	    0.000842	    0.011382	    0.012223	    0.016380	    0.008819	    0.025199	    0.010707	    0.013372	    0.024079	    0.012076	    0.035087	    0.047163	    0.043999	    0.095807	    0.139805	    0.020233	    0.013298	    0.033531	    0.013910	    0.006497	    0.020406	   -0.001060	    0.068529	    0.067469	    0.006109	    0.000585	    0.006694	    0.001722	   -0.003094	   -0.001371	    0.010913	    0.035978	    0.046892	    0.034923	    0.066471	    0.101393	    0.007585	   -0.037918	   -0.030332	    0.042676	    0.043452	    0.086128	   -0.008567	    0.030072	    0.021505	    0.009015	   -0.025811	   -0.016796	    0.003023	    0.004023	    0.007046	    0.000541	    0.000936	    0.001478	    0.045194	    0.061592	    0.106786	    0.065391	    0.105106	    0.170497
     4.800	0	0	    0	    0.019880	   -0.006962	    0.012918	    0.003093	    0.008704	    0.011797	   -0.001155	    0.010845	    0.009691	    0.015980	    0.003966	    0.019946	    0.015268	    0.010885	    0.026153	    0.011742	    0.039453	    0.051195	    0.030795	    0.090992	    0.121787	   -0.005452	    0.003622	   -0.001830	    0.011756	    0.007315	    0.019071	   -0.007860	    0.061852	    0.053992	    0.005308	   -0.000639	    0.004669	    0.000161	   -0.003240	   -0.003079	    0.013842	    0.031754	    0.045596	    0.037281	    0.059827	    0.097108	    0.064284	   -0.021513	    0.042772	    0.022386	    0.037756	    0.060142	   -0.016340	    0.035989	    0.019648	    0.003755	   -0.025142	   -0.021388	    0.000644	    0.002503	    0.003148	   -0.003779	    0.000251	   -0.003528	    0.004331	    0.039193	    0.043524	    0.061390	    0.042495	    0.103886
     4.875	0	0	    0	    0.011492	    0.000343	    0.011836	    0.004241	    0.003410	    0.007650	   -0.004505	    0.009861	    0.005356	    0.013630	    0.003823	    0.017453	    0.017692	    0.007841	    0.025533	    0.012241	    0.027703	    0.039944	    0.051738	    0.076518	    0.128256	   -0.006448	   -0.003893	   -0.010341	    0.010136	    0.009452	    0.019588	   -0.021417	    0.068859	    0.047442	    0.003940	   -0.000919	    0.003021	   -0.000661	   -0.002545	   -0.003206	    0.015300	    0.034254	    0.049554	    0.028692	    0.051327	    0.080019	    0.076874	   -0.016118	    0.060756	    0.003437	    0.014475	    0.017912	   -0.012453	    0.017370	    0.004918	    0.010454	   -0.033489	   -0.023034	    0.000419	    0.001263	    0.001682	   -0.010788	   -0.005537	   -0.016325	   -0.013117	    0.003302	   -0.009815	    0.111048	    0.066234	    0.177282
     4.950	0	0	    0	    0.015129	   -0.000122	    0.015007	    0.008168	    0.001023	    0.009191	   -0.000227	    0.007532	    0.007304	    0.013771	    0.006092	    0.019864	    0.014839	    0.015812	    0.030652	    0.021782	    0.019728	    0.041510	    0.075803	    0.073753	    0.149556	   -0.003116	   -0.002941	   -0.006057	    0.009343	    0.008584	    0.017926	    0.000233	    0.047340	    0.047573	    0.004682	   -0.002107	    0.002575	    0.001565	   -0.003560	   -0.001995	    0.012592	    0.039893	    0.052485	    0.031973	    0.056545	    0.088518	    0.071524	    0.027299	    0.098823	    0.001218	    0.006579	    0.007798	   -0.010173	    0.014904	    0.004731	    0.016617	   -0.038333	   -0.021716	    0.001788	    0.000156	    0.001944	   -0.011445	   -0.007865	   -0.019310	   -0.014017	   -0.002469	   -0.016486	    0.141938	    0.093048	    0.234986
     5.025	0	0	    0	    0.012332	   -0.001632	    0.010700	    0.005361	    0.007032	    0.012393	   -0.002740	    0.013679	    0.010939	    0.012727	    0.009863	    0.022590	    0.016645	    0.014029	    0.030675	    0.016985	    0.026353	    0.043338	    0.057191	    0.090581	    0.147772	   -0.002780	    0.001511	   -0.001268	    0.017824	    0.005543	    0.023367	   -0.012885	    0.072704	    0.059819	    0.004253	    0.000737	    0.004990	    0.003095	   -0.003023	    0.000072	    0.020994	    0.036823	    0.057817	    0.021095	    0.070938	    0.092032	    0.046420	    0.039867	    0.086287	    0.007461	    0.008306	    0.015767	   -0.002704	    0.016134	    0.013430	    0.008835	   -0.025185	   -0.016350	    0.003718	    0.001725	    0.005444	   -0.004612	   -0.006773	   -0.011385	   -0.002675	   -0.002259	   -0.004935	    0.102818	    0.112598	    0.215417
     5.100	0	0	    0	    0.014589	    0.001394	    0.015983	    0.013097	    0.001282	    0.014379	    0.007532	    0.006967	    0.014498	    0.020587	    0.006434	    0.027021	    0.015860	    0.016108	    0.031968	    0.021228	    0.032285	    0.053513	    0.058240	    0.080481	    0.138721	    0.010017	   -0.008142	    0.001875	    0.018447	    0.009024	    0.027471	   -0.004300	    0.059708	    0.055408	    0.007043	    0.000105	    0.007147	    0.005829	   -0.003559	    0.002270	    0.020768	    0.039573	    0.060341	    0.048307	    0.042838	    0.091145	    0.051002	   -0.004616	    0.046386	    0.017303	    0.008165	    0.025467	   -0.004701	    0.018247	    0.013546	    0.013978	   -0.028027	   -0.014048	    0.006444	    0.002943	    0.009388	    0.001651	   -0.005689	   -0.004038	    0.021836	    0.001898	    0.023734	    0.074029	    0.064410	    0.138439
     5.175	0	0	    0	    0.021462	    0.004581	    0.026042	    0.014370	    0.006399	    0.020769	    0.004797	    0.015198	    0.019995	    0.018842	    0.011358	    0.030200	    0.019966	    0.016989	    0.036955	    0.012683	    0.046945	    0.059628	    0.070617	    0.107279	    0.177896	    0.016219	    0.013762	    0.029981	    0.022266	    0.007429	    0.029695	    0.001349	    0.067371	    0.068720	    0.009229	   -0.000162	    0.009067	    0.007212	   -0.002808	    0.004404	    0.021925	    0.036646	    0.058570	    0.056405	    0.063424	    0.119829	    0.035637	   -0.033124	    0.002513	    0.041767	    0.015252	    0.057019	   -0.002210	    0.022971	    0.020761	    0.016761	   -0.029125	   -0.012364	    0.008603	    0.002769	    0.011372	    0.009454	   -0.002106	    0.007348	    0.068631	    0.031191	    0.099822	    0.129785	    0.106662	    0.236446
     5.250	0	0	    0	    0.021469	    0.009762	    0.031231	    0.019903	    0.001143	    0.021045	    0.014630	   -0.002737	    0.011893	    0.017614	    0.009520	    0.027134	    0.018614	    0.020949	    0.039563	    0.024745	    0.033945	    0.058690	    0.093657	    0.082300	    0.175957	    0.026161	    0.022358	    0.048519	    0.023091	    0.008218	    0.031309	    0.009969	    0.061906	    0.071875	    0.010369	   -0.001368	    0.009001	    0.007575	   -0.001117	    0.006459	    0.021842	    0.036378	    0.058220	    0.066791	    0.059483	    0.126274	    0.038379	   -0.017575	    0.020804	    0.056542	    0.040259	    0.096801	   -0.000733	    0.027723	    0.026990	    0.022189	   -0.034302	   -0.012113	    0.009254	    0.002643	    0.011898	    0.011948	    0.000440	    0.012388	    0.068384	    0.061639	    0.130023	    0.122419	    0.133751	    0.256170
     5.325	0	0	    0	    0.018219	    0.017421	    0.035641	    0.012067	    0.011810	    0.023878	    0.003392	    0.013870	    0.017262	    0.018624	    0.009367	    0.027991	    0.021367	    0.018609	    0.039975	    0.005557	    0.054539	    0.060096	    0.055498	    0.124276	    0.179775	    0.016330	    0.027553	    0.043883	    0.023101	    0.007772	    0.030873	   -0.012836	    0.083057	    0.070221	    0.008628	    0.000462	    0.009089	    0.008404	   -0.001823	    0.006582	    0.024995	    0.034632	    0.059627	    0.055888	    0.075289	    0.131177	    0.008513	   -0.000038	    0.008475	    0.054118	    0.048051	    0.102169	    0.002287	    0.022555	    0.024842	    0.015025	   -0.025398	   -0.010373	    0.007744	    0.003750	    0.011494	    0.013127	    0.000615	    0.013742	    0.063449	    0.070384	    0.133833	    0.073852	    0.148353	    0.222205
     5.400	0	0	    0	    0.010455	    0.008275	    0.018730	    0.017572	    0.003109	    0.020682	    0.009443	    0.004582	    0.014024	    0.014829	    0.008989	    0.023818	    0.022954	    0.015460	    0.038414	    0.025756	    0.034718	    0.060474	    0.084909	    0.085035	    0.169945	    0.002908	    0.016060	    0.018968	    0.022275	    0.007508	    0.029783	    0.016488	    0.061823	    0.078310	    0.009465	   -0.001267	    0.008198	    0.008218	   -0.000678	    0.007540	    0.022220	    0.038598	    0.060818	    0.066699	    0.057490	    0.124188	    0.068740	   -0.035147	    0.033593	    0.034883	    0.046679	    0.081562	   -0.004124	    0.031525	    0.027401	    0.016122	   -0.026396	   -0.010274	    0.007051	    0.002768	    0.009819	    0.009929	    0.002833	    0.012762	    0.030686	    0.059283	    0.089969	    0.051959	    0.070976	    0.122935
     5.475	0	0	    0	    0.013554	    0.009524	    0.023078	    0.007658	    0.009877	    0.017535	   -0.002118	    0.012902	    0.010784	    0.016891	    0.007056	    0.023947	    0.019169	    0.018031	    0.037200	    0.016659	    0.041325	    0.057984	    0.037582	    0.119746	    0.157328	   -0.001177	    0.006102	    0.004925	    0.021041	    0.008897	    0.029938	   -0.024421	    0.090613	    0.066192	    0.007624	   -0.000761	    0.006862	    0.007329	    0.000667	    0.007996	    0.024618	    0.037438	    0.062056	    0.042075	    0.070627	    0.112702	    0.089569	    0.015150	    0.104718	    0.021739	    0.023843	    0.045583	   -0.002540	    0.023371	    0.020831	    0.020132	   -0.032939	   -0.012807	    0.006743	    0.001548	    0.008291	    0.002664	    0.000012	    0.002676	    0.003370	    0.026474	    0.029844	    0.095794	    0.047648	    0.143442
     5.550	0	0	    0	    0.019107	   -0.005194	    0.013913	    0.008163	    0.007633	    0.015796	   -0.001169	    0.009567	    0.008398	    0.011828	    0.008992	    0.020821	    0.024516	    0.015749	    0.040266	    0.019292	    0.032050	    0.051342	    0.067768	    0.097177	    0.164945	   -0.001315	    0.002974	    0.001660	    0.020777	    0.007523	    0.028300	   -0.002211	    0.072481	    0.070270	    0.005966	   -0.001300	    0.004666	    0.006997	    0.000412	    0.007409	    0.025102	    0.036795	    0.061898	    0.038142	    0.061265	    0.099406	    0.091541	    0.003788	    0.095329	    0.016069	    0.018398	    0.034466	   -0.000774	    0.018051	    0.017277	    0.011924	   -0.024756	   -0.012832	    0.006056	    0.000525	    0.006581	   -0.000472	   -0.002859	   -0.003330	   -0.001080	    0.009080	    0.008000	    0.131302	    0.105250	    0.236552
     5.625	0	0	    0	    0.011607	    0.001801	    0.013408	    0.009382	    0.004961	    0.014343	   -0.003553	    0.008677	    0.005124	    0.006123	    0.010245	    0.016368	    0.014196	    0.023226	    0.037422	    0.022856	    0.019036	    0.041892	    0.076900	    0.097531	    0.174431	   -0.008106	    0.001726	   -0.006380	    0.019701	    0.006233	    0.025934	   -0.000455	    0.066999	    0.066544	    0.003303	   -0.000908	    0.002395	    0.005148	    0.002516	    0.007664	    0.024067	    0.038517	    0.062584	    0.035126	    0.069059	    0.104186	    0.072881	    0.049304	    0.122186	    0.013690	    0.012962	    0.026653	    0.004728	    0.012884	    0.017612	    0.014926	   -0.026473	   -0.011548	    0.004062	    0.000872	    0.004933	   -0.000540	   -0.004790	   -0.005330	   -0.005825	    0.005188	   -0.000637	    0.138787	    0.122192	    0.260979
     5.700	0	0	    0	    0.025142	   -0.011953	    0.013188	    0.008845	    0.002700	    0.011545	   -0.001290	    0.002887	    0.001597	    0.010894	    0.002886	    0.013780	    0.033392	    0.005122	    0.038514	    0.025328	    0.011424	    0.036752	    0.088281	    0.086654	    0.174936	   -0.002334	   -0.006210	   -0.008545	    0.013897	    0.006678	    0.020576	    0.012279	    0.043425	    0.055705	    0.002197	   -0.002929	   -0.000733	    0.006472	   -0.000074	    0.006398	    0.017261	    0.042779	    0.060040	    0.039646	    0.066806	    0.106452	    0.074395	    0.065201	    0.139596	    0.004809	    0.017088	    0.021897	   -0.008954	    0.026653	    0.017699	    0.018591	   -0.029859	   -0.011268	    0.003236	   -0.000271	    0.002965	   -0.002956	   -0.002805	   -0.005762	   -0.011055	    0.004607	   -0.006447	    0.152044	    0.115571	    0.267615
     5.775	0	0	    0	    0.028520	   -0.020300	    0.008220	    0.004075	    0.003422	    0.007497	   -0.010143	    0.011361	    0.001218	    0.011035	    0.000306	    0.011341	    0.027015	    0.011569	    0.038584	    0.019663	    0.016528	    0.036191	    0.070887	    0.100388	    0.171276	   -0.010220	   -0.003907	   -0.014127	    0.011671	    0.003587	    0.015257	   -0.012798	    0.074105	    0.061308	    0.001278	   -0.002457	   -0.001179	    0.004018	    0.000192	    0.004210	    0.020847	    0.037337	    0.058184	    0.027435	    0.075399	    0.102834	    0.067917	    0.040885	    0.108803	    0.007768	    0.010472	    0.018240	    0.003559	    0.013902	    0.017461	    0.014989	   -0.027323	   -0.012334	    0.002285	   -0.000418	    0.001867	   -0.002270	   -0.005979	   -0.008249	   -0.009476	   -0.000082	   -0.009558	    0.102457	    0.131232	    0.233689
     5.850	0	0	    0	    0.021986	   -0.016349	    0.005638	    0.006322	   -0.002306	    0.004016	   -0.002708	    0.003790	    0.001082	    0.008005	    0.003251	    0.011257	    0.019966	    0.016989	    0.036955	    0.018015	    0.026373	    0.044388	    0.073367	    0.097162	    0.170529	   -0.002087	   -0.007915	   -0.010001	    0.007873	    0.002882	    0.010755	   -0.008587	    0.069535	    0.060948	    0.000335	   -0.002397	   -0.002062	    0.004414	    0.000267	    0.004682	    0.014802	    0.039974	    0.054776	    0.045635	    0.054886	    0.100520	    0.057892	    0.008361	    0.066253	    0.009591	    0.013567	    0.023158	    0.002306	    0.012932	    0.015238	    0.012388	   -0.026855	   -0.014466	    0.002197	   -0.000440	    0.001757	    0.001187	   -0.005306	   -0.004119	    0.008635	    0.010956	    0.019591	    0.100595	    0.070842	    0.171438
     5.925	0	0	    0	    0.018369	    0.005964	    0.024333	    0.003080	    0.004177	    0.007257	    0.002699	   -0.002092	    0.000607	    0.005828	    0.004486	    0.010314	    0.022417	    0.018366	    0.040783	    0.006482	    0.043423	    0.049905	    0.071809	    0.129296	    0.201105	    0.011456	    0.018420	    0.029876	    0.007986	    0.003767	    0.011753	   -0.004229	    0.067788	    0.063559	    0.000091	   -0.002259	   -0.002168	    0.004731	    0.001909	    0.006639	    0.013013	    0.036384	    0.049397	    0.052842	    0.075947	    0.128789	    0.040884	   -0.006540	    0.034344	    0.030313	    0.026228	    0.056541	   -0.004898	    0.025923	    0.021025	    0.013712	   -0.029310	   -0.015598	    0.001463	    0.000316	    0.001778	    0.001080	   -0.000372	    0.000707	    0.043765	    0.047695	    0.091460	    0.123158	    0.126868	    0.250027
     6.000	0	0	    0	    0.018369	    0.005964	    0.024333	    0.000073	    0.008145	    0.008218	   -0.009417	    0.009192	   -0.000225	    0.004311	    0.003363	    0.007674	    0.021062	    0.022352	    0.043414	   -0.000471	    0.043553	    0.043083	    0.050240	    0.145611	    0.195852	    0.018648	    0.026799	    0.045447	    0.009463	   -0.001054	    0.008409	   -0.021841	    0.082531	    0.060690	    0.000828	   -0.001670	   -0.000842	    0.006071	    0.004090	    0.010161	    0.013870	    0.034052	    0.047922	    0.048150	    0.080947	    0.129096	    0.041132	    0.019915	    0.061047	    0.043677	    0.047628	    0.091305	    0.001359	    0.020658	    0.022017	    0.011168	   -0.024163	   -0.012995	    0.001274	    0.001209	    0.002483	    0.002342	    0.002003	    0.004345	    0.050290	    0.067374	    0.117665	    0.116713	    0.153218	    0.269931
     6.075	0	0	    0	    0.019809	    0.006739	    0.026548	    0.003523	    0.005249	    0.008771	   -0.003517	    0.006499	    0.002982	    0.007624	    0.002210	    0.009834	    0.026613	    0.018174	    0.044787	    0.004446	    0.042635	    0.047081	    0.079879	    0.123788	    0.203666	    0.014694	    0.034758	    0.049452	    0.003589	    0.002983	    0.006572	    0.018443	    0.047431	    0.065874	    0.004557	   -0.002910	    0.001647	    0.009906	    0.004076	    0.013982	    0.011312	    0.037878	    0.049190	    0.053362	    0.080176	    0.133537	    0.037155	    0.008101	    0.045256	    0.040890	    0.058990	    0.099881	   -0.011950	    0.035665	    0.023715	    0.013573	   -0.026775	   -0.013202	    0.003309	    0.001251	    0.004561	    0.002459	    0.004033	    0.006492	    0.042480	    0.077122	    0.119601	    0.073799	    0.148906	    0.222706
     6.150	0	0	    0	    0.017924	    0.000652	    0.018576	    0.007020	    0.005405	    0.012425	   -0.001318	    0.013637	    0.012319	    0.009996	    0.003816	    0.013812	    0.026349	    0.020837	    0.047187	    0.008809	    0.043115	    0.051924	    0.061272	    0.134445	    0.195717	    0.000794	    0.025452	    0.026246	    0.013920	    0.000619	    0.014539	   -0.020072	    0.103970	    0.083898	    0.007430	   -0.000760	    0.006670	    0.013018	    0.004662	    0.017680	    0.022618	    0.034345	    0.056963	    0.050375	    0.092879	    0.143254	    0.080110	   -0.000784	    0.079326	    0.040234	    0.047690	    0.087924	   -0.007386	    0.039226	    0.031840	    0.019139	   -0.025348	   -0.006208	    0.005383	    0.001541	    0.006925	    0.006826	    0.003633	    0.010458	    0.023286	    0.058926	    0.082212	    0.051679	    0.087940	    0.139619
     6.225	0	0	    0	    0.021558	   -0.007438	    0.014121	    0.009221	    0.003604	    0.012825	    0.001659	    0.012107	    0.013766	    0.010090	    0.005214	    0.015304	    0.031670	    0.017442	    0.049112	    0.018427	    0.031804	    0.050230	    0.057013	    0.140109	    0.197122	   -0.001339	    0.011323	    0.009984	    0.017971	    0.002388	    0.020359	    0.005022	    0.065155	    0.070177	    0.009126	    0.001010	    0.010136	    0.013899	    0.006599	    0.020498	    0.029061	    0.038913	    0.067974	    0.042598	    0.087056	    0.129654	    0.106258	    0.043814	    0.150072	    0.022887	    0.034763	    0.057650	    0.001365	    0.020157	    0.021522	    0.025934	   -0.034964	   -0.009030	    0.007230	    0.001430	    0.008660	    0.002271	    0.001728	    0.003999	    0.002375	    0.034120	    0.036494	    0.106788	    0.091837	    0.198625
     6.300	0	0	    0	    0.021274	   -0.010449	    0.010825	    0.008635	    0.004549	    0.013185	    0.004641	    0.011439	    0.016080	    0.008479	    0.007922	    0.016401	    0.031000	    0.022289	    0.053288	    0.022303	    0.025636	    0.047939	    0.081834	    0.125433	    0.207266	   -0.002582	    0.010873	    0.008291	    0.018047	    0.007974	    0.026021	    0.000350	    0.066499	    0.066849	    0.009170	    0.002388	    0.011557	    0.013714	    0.007066	    0.020780	    0.029382	    0.044686	    0.074068	    0.039144	    0.080324	    0.119468	    0.104666	    0.047542	    0.152208	    0.020286	    0.029820	    0.050107	    0.002536	    0.019136	    0.021673	    0.021682	   -0.029687	   -0.008005	    0.007285	    0.001864	    0.009150	    0.000158	   -0.000060	    0.000098	    0.001806	    0.019959	    0.021765	    0.133657	    0.144315	    0.277972
     6.375	0	0	    0	    0.016959	   -0.007491	    0.009468	    0.007409	    0.003581	    0.010990	   -0.001426	    0.014210	    0.012784	    0.006821	    0.008905	    0.015726	    0.030397	    0.019547	    0.049944	    0.017358	    0.023930	    0.041288	    0.068501	    0.121585	    0.190086	   -0.003711	    0.007221	    0.003511	    0.018618	    0.005390	    0.024008	   -0.008097	    0.066617	    0.058519	    0.007277	    0.004101	    0.011378	    0.012842	    0.007247	    0.020089	    0.030663	    0.045273	    0.075936	    0.032633	    0.087932	    0.120564	    0.084230	    0.089596	    0.173826	    0.016340	    0.023436	    0.039776	   -0.005480	    0.021852	    0.016372	    0.016462	   -0.026801	   -0.010339	    0.005822	    0.002784	    0.008606	    0.000955	   -0.003380	   -0.002425	    0.000151	    0.015545	    0.015697	    0.141339	    0.156729	    0.298068
     6.450	0	0	    0	    0.001836	    0.008349	    0.010185	    0.004264	    0.007930	    0.012194	    0.000799	    0.013606	    0.014405	    0.006979	    0.009815	    0.016794	    0.015923	    0.031719	    0.047642	    0.018403	    0.022645	    0.041048	    0.064662	    0.137043	    0.201705	   -0.010098	    0.013094	    0.002997	    0.016960	    0.008429	    0.025389	   -0.009310	    0.089438	    0.080128	    0.008247	    0.002284	    0.010531	    0.010055	    0.008409	    0.018464	    0.026866	    0.053740	    0.080606	    0.034186	    0.095533	    0.129719	    0.089420	    0.109716	    0.199136	    0.010089	    0.024245	    0.034334	   -0.007373	    0.034748	    0.027375	    0.020065	   -0.027653	   -0.007588	    0.007587	    0.001520	    0.009107	   -0.000652	   -0.001711	   -0.002364	   -0.001607	    0.018007	    0.016400	    0.151537	    0.168217	    0.319754
     6.525	0	0	    0	    0.016890	   -0.003217	    0.013673	    0.003638	    0.006007	    0.009645	   -0.000928	    0.011852	    0.010925	    0.010402	    0.006590	    0.016991	    0.031538	    0.015301	    0.046839	    0.029370	    0.020163	    0.049533	    0.083738	    0.117433	    0.201170	   -0.010198	    0.007585	   -0.002614	    0.016419	    0.009953	    0.026372	   -0.002586	    0.075997	    0.073411	    0.007925	    0.003159	    0.011084	    0.011775	    0.006009	    0.017784	    0.026949	    0.055274	    0.082223	    0.032915	    0.077902	    0.110817	    0.093382	    0.040132	    0.133514	    0.006006	    0.026250	    0.032255	   -0.011853	    0.040876	    0.029023	    0.014902	   -0.023691	   -0.008789	    0.008071	    0.001451	    0.009523	   -0.001349	   -0.002074	   -0.003423	    0.009808	    0.014277	    0.024085	    0.090285	    0.166790	    0.257075
     6.600	0	0	    0	    0.017236	    0.000558	    0.017793	    0.009600	    0.000145	    0.009745	    0.005764	   -0.000792	    0.004973	    0.010283	    0.006298	    0.016580	    0.032864	    0.014785	    0.047649	    0.027007	    0.034504	    0.061511	    0.087668	    0.112537	    0.200205	    0.009524	    0.005286	    0.014810	    0.019283	    0.008059	    0.027341	   -0.003305	    0.077026	    0.073722	    0.009255	    0.003510	    0.012765	    0.010690	    0.004708	    0.015397	    0.024585	    0.051618	    0.076204	    0.053658	    0.079448	    0.133106	    0.061001	    0.048818	    0.109819	    0.017206	    0.027776	    0.044982	   -0.005654	    0.034794	    0.029140	    0.016946	   -0.024197	   -0.007251	    0.008735	    0.001993	    0.010728	    0.001420	   -0.001587	   -0.000167	    0.034875	    0.027252	    0.062127	    0.123954	    0.106358	    0.230312
     6.675	0	0	    0	    0.015828	    0.011885	    0.027713	    0.015203	   -0.002032	    0.013171	    0.007973	    0.005980	    0.013952	    0.006800	    0.010954	    0.017754	    0.023337	    0.029206	    0.052543	    0.022706	    0.039202	    0.061907	    0.092066	    0.136836	    0.228902	    0.007136	    0.038555	    0.045692	    0.018995	    0.007839	    0.026834	    0.012193	    0.054100	    0.066293	    0.009774	    0.003457	    0.013231	    0.011702	    0.006666	    0.018368	    0.024061	    0.046773	    0.070834	    0.063160	    0.086625	    0.149786	    0.053759	    0.038895	    0.092653	    0.044639	    0.043705	    0.088344	   -0.004331	    0.030055	    0.025724	    0.020707	   -0.031232	   -0.010525	    0.007950	    0.002660	    0.010610	    0.005477	   -0.000683	    0.004794	    0.064577	    0.073612	    0.138189	    0.136416	    0.170941	    0.307358
     6.750	0	0	    0	    0.021944	    0.007453	    0.029397	    0.011130	    0.003493	    0.014622	    0.006546	    0.004707	    0.011254	    0.007063	    0.007074	    0.014136	    0.023042	    0.029502	    0.052545	    0.013247	    0.047606	    0.060853	    0.080137	    0.134467	    0.214604	    0.007292	    0.043669	    0.050961	    0.016677	    0.007948	    0.024625	   -0.006716	    0.082691	    0.075976	    0.008411	    0.003558	    0.011968	    0.011183	    0.007104	    0.018287	    0.024032	    0.046928	    0.070960	    0.049098	    0.094469	    0.143567	    0.030269	    0.049765	    0.080033	    0.052164	    0.062199	    0.114363	    0.002174	    0.024916	    0.027090	    0.015842	   -0.026841	   -0.010999	    0.006531	    0.002733	    0.009264	    0.005365	    0.002794	    0.008159	    0.058635	    0.090729	    0.149363	    0.092314	    0.181636	    0.273949
     6.825	0	0	    0	    0.020608	    0.003962	    0.024570	    0.010144	    0.002677	    0.012822	    0.001461	    0.010608	    0.012069	    0.005790	    0.005840	    0.011630	    0.022961	    0.026749	    0.049710	    0.017363	    0.041789	    0.059151	    0.055812	    0.127959	    0.183770	   -0.008756	    0.042954	    0.034197	    0.016183	    0.007874	    0.024057	    0.005486	    0.063703	    0.069189	    0.007695	    0.003553	    0.011248	    0.009171	    0.006393	    0.015565	    0.023391	    0.045792	    0.069183	    0.038035	    0.087402	    0.125437	    0.072054	    0.020784	    0.092838	    0.032988	    0.061640	    0.094628	    0.002454	    0.020962	    0.023415	    0.012599	   -0.025561	   -0.012962	    0.004056	    0.002016	    0.006072	    0.000938	    0.003556	    0.004494	    0.018703	    0.075316	    0.094019	    0.058067	    0.113191	    0.171258
     6.900	0	0	    0	   -0.003103	    0.012904	    0.009801	    0.002072	    0.005231	    0.007303	   -0.002408	    0.011110	    0.008702	    0.003617	    0.005968	    0.009585	    0.015385	    0.031742	    0.047128	    0.012613	    0.041020	    0.053632	    0.053972	    0.138293	    0.192265	   -0.018767	    0.018758	   -0.000009	    0.011839	    0.010304	    0.022143	   -0.010023	    0.070111	    0.060087	    0.007223	    0.003346	    0.010568	    0.007123	    0.006328	    0.013451	    0.022632	    0.048202	    0.070833	    0.031415	    0.095135	    0.126549	    0.093119	    0.067958	    0.161077	    0.011953	    0.044065	    0.056018	   -0.003547	    0.017242	    0.013695	    0.011092	   -0.030740	   -0.019648	    0.003868	    0.000496	    0.004364	   -0.006818	   -0.000487	   -0.007306	   -0.009711	    0.036027	    0.026316	    0.101364	    0.115570	    0.216934
     6.975	0	0	    0	    0.016091	   -0.008051	    0.008040	    0.004726	    0.001509	    0.006235	    0.003118	    0.007695	    0.010813	    0.007270	    0.001351	    0.008621	    0.028885	    0.015801	    0.044687	    0.017321	    0.029219	    0.046540	    0.072255	    0.137627	    0.209882	   -0.017001	    0.015563	   -0.001438	    0.014022	    0.007918	    0.021939	   -0.005213	    0.064009	    0.058797	    0.005975	    0.003999	    0.009973	    0.009050	    0.006206	    0.015256	    0.020049	    0.052351	    0.072400	    0.030220	    0.084201	    0.114421	    0.094223	    0.081240	    0.175463	    0.008372	    0.029286	    0.037658	   -0.008359	    0.021585	    0.013227	    0.012820	   -0.029788	   -0.016968	    0.002991	    0.001031	    0.004023	   -0.009675	   -0.002865	   -0.012540	   -0.012543	    0.025051	    0.012508	    0.143338	    0.150263	    0.293601
     7.050	0	0	    0	   -0.013505	    0.015473	    0.001969	   -0.001843	    0.005603	    0.003760	   -0.005511	    0.012399	    0.006888	   -0.005187	    0.010432	    0.005245	    0.016129	    0.033129	    0.049258	    0.006138	    0.031432	    0.037570	    0.053979	    0.153190	    0.207169	   -0.024432	    0.020787	   -0.003645	    0.010006	    0.008394	    0.018400	   -0.019280	    0.077419	    0.058139	    0.004036	    0.003026	    0.007061	    0.006697	    0.009868	    0.016565	    0.020448	    0.051429	    0.071877	    0.015033	    0.100839	    0.115872	    0.075287	    0.118538	    0.193825	    0.003933	    0.025638	    0.029571	   -0.007942	    0.017648	    0.009706	    0.011092	   -0.030740	   -0.019648	    0.001771	    0.001145	    0.002916	   -0.010800	   -0.004222	   -0.015022	   -0.016358	    0.017101	    0.000744	    0.130041	    0.172168	    0.302209
     7.125	0	0	    0	    0.010222	    0.001037	    0.011259	   -0.000779	    0.003878	    0.003099	   -0.003248	    0.013883	    0.010634	    0.002408	    0.006201	    0.008608	    0.021123	    0.032495	    0.053618	    0.011696	    0.027767	    0.039463	    0.063805	    0.147007	    0.210812	   -0.015879	    0.014128	   -0.001751	    0.010327	    0.005766	    0.016093	   -0.018090	    0.082360	    0.064270	    0.005386	    0.002132	    0.007519	    0.009409	    0.008187	    0.017596	    0.018823	    0.052334	    0.071157	    0.014955	    0.098058	    0.113012	    0.083880	    0.055637	    0.139516	    0.005481	    0.021079	    0.026560	    0.004667	    0.007707	    0.012375	    0.013813	   -0.028247	   -0.014433	    0.003841	    0.000015	    0.003856	   -0.010095	   -0.004759	   -0.014854	   -0.007067	    0.014311	    0.007244	    0.084360	    0.161666	    0.246026
     7.200	0	0	    0	    0.003293	    0.024135	    0.027428	    0.006122	    0.004707	    0.010829	   -0.003755	    0.016250	    0.012496	    0.005087	    0.008470	    0.013557	    0.013085	    0.034684	    0.047770	    0.010509	    0.046307	    0.056816	    0.062219	    0.158249	    0.220468	   -0.006585	    0.039162	    0.032577	    0.016823	    0.007106	    0.023928	   -0.013390	    0.099043	    0.085653	    0.009498	    0.001575	    0.011074	    0.007967	    0.007802	    0.015770	    0.020303	    0.051340	    0.071643	    0.038040	    0.100120	    0.138160	    0.039206	    0.051228	    0.090433	    0.017318	    0.033609	    0.050927	   -0.004313	    0.031346	    0.027033	    0.020019	   -0.028735	   -0.008716	    0.006897	    0.000777	    0.007674	   -0.001511	   -0.001178	   -0.002688	    0.039015	    0.026147	    0.065162	    0.139158	    0.124870	    0.264027
     7.275	0	0	    0	    0.013130	    0.018600	    0.031730	    0.013333	    0.004676	    0.018010	    0.006121	    0.013549	    0.019670	    0.008622	    0.008398	    0.017020	    0.020415	    0.022063	    0.042478	    0.008508	    0.050830	    0.059338	    0.048469	    0.180939	    0.229409	    0.008532	    0.052026	    0.060559	    0.023773	    0.006886	    0.030659	    0.012584	    0.068970	    0.081554	    0.010845	    0.002879	    0.013724	    0.009947	    0.004372	    0.014319	    0.029024	    0.041637	    0.070660	    0.050847	    0.106165	    0.157012	    0.054734	    0.046160	    0.100893	    0.055495	    0.049436	    0.104932	    0.009284	    0.021305	    0.030590	    0.019424	   -0.024900	   -0.005476	    0.008665	    0.001174	    0.009838	    0.006838	   -0.000387	    0.006450	    0.068002	    0.085217	    0.153219	    0.134591	    0.189119	    0.323710
     7.350	0	0	    0	    0.028696	    0.000615	    0.029310	    0.010569	    0.008390	    0.018959	   -0.002389	    0.019783	    0.017394	    0.010684	    0.006672	    0.017356	    0.020064	    0.019115	    0.039180	    0.009090	    0.048072	    0.057163	    0.057840	    0.168586	    0.226426	    0.008767	    0.050624	    0.059391	    0.022534	    0.008804	    0.031338	    0.008075	    0.070778	    0.078853	    0.011593	    0.002388	    0.013981	    0.010299	    0.004157	    0.014456	    0.028776	    0.043990	    0.072766	    0.057383	    0.100359	    0.157742	    0.038809	    0.064931	    0.103740	    0.052638	    0.071385	    0.124023	    0.004556	    0.022340	    0.026897	    0.020597	   -0.030378	   -0.009781	    0.008567	    0.001817	    0.010384	    0.006280	    0.003072	    0.009352	    0.063242	    0.098762	    0.162004	    0.104676	    0.193509	    0.298185
     7.425	0	0	    0	    0.022982	    0.003605	    0.026587	    0.011273	    0.006782	    0.018055	    0.005713	    0.008798	    0.014511	    0.011656	    0.004122	    0.015778	    0.030063	    0.020646	    0.050709	    0.011991	    0.046467	    0.058458	    0.043227	    0.170652	    0.213879	   -0.012409	    0.053980	    0.041571	    0.019645	    0.011591	    0.031235	   -0.004790	    0.077622	    0.072832	    0.011227	    0.001935	    0.013162	    0.012916	    0.006194	    0.019110	    0.026122	    0.047852	    0.073974	    0.037094	    0.104069	    0.141163	    0.054707	    0.031238	    0.085945	    0.033743	    0.072561	    0.106304	    0.005508	    0.019367	    0.024875	    0.021851	   -0.033066	   -0.011215	    0.007010	    0.001898	    0.008907	    0.004853	    0.004431	    0.009284	    0.027313	    0.093592	    0.120905	    0.061482	    0.128240	    0.189722
     7.500	0	0	    0	    0.016714	   -0.001294	    0.015420	    0.009564	    0.002258	    0.011822	    0.003169	    0.009349	    0.012517	    0.004966	    0.006449	    0.011415	    0.025712	    0.029021	    0.054733	    0.017789	    0.039244	    0.057033	    0.055286	    0.150138	    0.205425	   -0.013123	    0.023259	    0.010136	    0.018563	    0.011599	    0.030161	    0.018071	    0.050263	    0.068334	    0.009521	    0.002721	    0.012242	    0.012301	    0.008961	    0.021262	    0.029918	    0.049681	    0.079600	    0.032793	    0.108409	    0.141202	    0.094866	    0.080538	    0.175404	    0.014304	    0.052637	    0.066941	   -0.003322	    0.026527	    0.023204	    0.022944	   -0.033223	   -0.010279	    0.006215	    0.000519	    0.006734	   -0.002858	    0.004184	    0.001326	   -0.002911	    0.056495	    0.053584	    0.110049	    0.115013	    0.225062
     7.575	0	0	    0	   -0.003048	    0.022016	    0.018968	    0.006621	    0.005008	    0.011629	   -0.004716	    0.015287	    0.010571	    0.002292	    0.008738	    0.011030	    0.018736	    0.033237	    0.051974	    0.014539	    0.030057	    0.044595	    0.053222	    0.165438	    0.218660	   -0.019484	    0.028587	    0.009104	    0.019399	    0.011155	    0.030555	    0.011046	    0.056525	    0.067571	    0.006566	    0.003200	    0.009766	    0.011712	    0.009824	    0.021536	    0.025659	    0.052932	    0.078591	    0.025681	    0.103178	    0.128858	    0.106053	    0.083748	    0.189801	    0.014687	    0.036921	    0.051608	   -0.003194	    0.024167	    0.020974	    0.013734	   -0.021829	   -0.008095	    0.005329	    0.000015	    0.005344	   -0.005849	   -0.000694	   -0.006543	   -0.009020	    0.033686	    0.024665	    0.131004	    0.187451	    0.318455
     7.650	0	0	    0	   -0.005611	    0.014427	    0.008816	    0.004455	    0.004072	    0.008526	    0.003955	    0.007935	    0.011891	    0.001470	    0.009346	    0.010816	    0.017378	    0.030411	    0.047789	    0.009139	    0.033521	    0.042661	    0.061100	    0.163939	    0.225040	   -0.023609	    0.029502	    0.005894	    0.020903	    0.008432	    0.029335	   -0.007424	    0.073839	    0.066416	    0.005808	    0.002612	    0.008420	    0.008081	    0.008465	    0.016547	    0.023343	    0.055321	    0.078664	    0.018848	    0.117325	    0.136173	    0.095145	    0.140175	    0.235320	    0.008887	    0.036871	    0.045759	   -0.001581	    0.020414	    0.018833	    0.022109	   -0.032879	   -0.010770	    0.005128	   -0.000840	    0.004288	   -0.007000	   -0.002440	   -0.009440	   -0.012019	    0.028747	    0.016728	    0.148393	    0.201461	    0.349853
     7.725	0	0	    0	    0.009065	    0.003342	    0.012407	    0.001265	    0.004655	    0.005920	   -0.008608	    0.021852	    0.013244	    0.006183	    0.006214	    0.012397	    0.014477	    0.033020	    0.047497	    0.007251	    0.039782	    0.047034	    0.053961	    0.175800	    0.229761	   -0.021455	    0.023186	    0.001731	    0.015453	    0.011057	    0.026510	   -0.009713	    0.083893	    0.074180	    0.004935	    0.002066	    0.007000	    0.004552	    0.006465	    0.011017	    0.020717	    0.058296	    0.079013	    0.016992	    0.116905	    0.133896	    0.082236	    0.158631	    0.240867	    0.000632	    0.037147	    0.037779	   -0.012654	    0.037012	    0.024359	    0.022202	   -0.027951	   -0.005748	    0.003717	   -0.000388	    0.003330	   -0.009317	   -0.001381	   -0.010699	   -0.016384	    0.027338	    0.010954	    0.148737	    0.194105	    0.342842
     7.800	0	0	    0	    0.008745	   -0.005373	    0.003371	    0.003210	   -0.000252	    0.002958	    0.003551	    0.001966	    0.005517	    0.004959	    0.004490	    0.009449	    0.022269	    0.019697	    0.041966	    0.016538	    0.030841	    0.047378	    0.094956	    0.133134	    0.228091	   -0.022239	    0.019300	   -0.002939	    0.013990	    0.009667	    0.023657	    0.004177	    0.059515	    0.063693	    0.003418	    0.002449	    0.005867	    0.005288	    0.001769	    0.007057	    0.018514	    0.059075	    0.077590	    0.016643	    0.099326	    0.115969	    0.075193	    0.085460	    0.160652	    0.003703	    0.031653	    0.035355	   -0.005743	    0.024759	    0.019016	    0.017899	   -0.028203	   -0.010304	    0.002976	   -0.000388	    0.002588	   -0.011474	   -0.002517	   -0.013991	   -0.006799	    0.022241	    0.015442	    0.086746	    0.203966	    0.290712
     7.875	0	0	    0	    0.018479	   -0.004392	    0.014087	    0.002260	    0.001414	    0.003674	   -0.002653	    0.007986	    0.005333	    0.005558	    0.005260	    0.010818	    0.023210	    0.016257	    0.039467	    0.012705	    0.040243	    0.052947	    0.056107	    0.163311	    0.219418	   -0.014066	    0.026728	    0.012663	    0.014181	    0.006896	    0.021077	    0.000098	    0.064597	    0.064696	    0.004254	    0.002462	    0.006715	    0.004151	    0.002980	    0.007131	    0.016795	    0.053194	    0.069990	    0.029965	    0.101329	    0.131293	    0.043338	    0.079427	    0.122765	    0.010537	    0.036505	    0.047042	   -0.000554	    0.019971	    0.019418	    0.012630	   -0.023632	   -0.011002	    0.002586	    0.000789	    0.003375	   -0.006477	   -0.002896	   -0.009373	    0.013002	    0.037431	    0.050433	    0.109719	    0.140010	    0.249729
     7.950	0	0	    0	    0.023142	   -0.002684	    0.020458	    0.006109	   -0.000240	    0.005870	    0.006258	    0.000312	    0.006570	    0.006498	    0.004940	    0.011439	    0.015942	    0.025449	    0.041392	    0.008809	    0.043115	    0.051924	    0.062470	    0.160760	    0.223230	   -0.006029	    0.053680	    0.047652	    0.011046	    0.009771	    0.020816	   -0.004494	    0.072665	    0.068171	    0.005549	    0.001673	    0.007222	    0.003917	    0.003842	    0.007759	    0.016499	    0.048294	    0.064793	    0.041567	    0.107943	    0.149511	    0.030568	    0.065773	    0.096341	    0.035251	    0.049550	    0.084801	   -0.004874	    0.027195	    0.022321	    0.012056	   -0.023670	   -0.011614	    0.002715	    0.000583	    0.003298	   -0.004952	    0.001232	   -0.003719	    0.048492	    0.082136	    0.130627	    0.121370	    0.205386	    0.326756
     8.025	0	0	    0	    0.013256	    0.015026	    0.028283	    0.006597	    0.002757	    0.009354	    0.002216	    0.007071	    0.009287	    0.003983	    0.007264	    0.011247	    0.017756	    0.026026	    0.043782	    0.005580	    0.050476	    0.056056	    0.064494	    0.166911	    0.231405	   -0.009896	    0.061153	    0.051257	    0.011867	    0.008477	    0.020344	    0.000581	    0.085356	    0.085937	    0.004583	    0.002565	    0.007149	    0.003591	    0.004819	    0.008409	    0.014265	    0.051685	    0.065950	    0.034170	    0.120808	    0.154978	    0.023011	    0.085430	    0.108441	    0.042202	    0.076585	    0.118787	   -0.005716	    0.029617	    0.023902	    0.011126	   -0.021371	   -0.010245	    0.001980	    0.001061	    0.003041	   -0.004289	    0.003263	   -0.001026	    0.042363	    0.102971	    0.145334	    0.097248	    0.215298	    0.312546
     8.100	0	0	    0	    0.024480	    0.008591	    0.033071	    0.009513	    0.001628	    0.011141	    0.006503	    0.001745	    0.008248	    0.007793	    0.005489	    0.013282	    0.014973	    0.028394	    0.043367	    0.014650	    0.041826	    0.056476	    0.051730	    0.164383	    0.216112	   -0.012177	    0.064060	    0.051883	    0.011169	    0.009295	    0.020465	    0.021409	    0.049379	    0.070788	    0.006538	    0.001088	    0.007627	    0.005767	    0.004131	    0.009897	    0.013493	    0.052404	    0.065897	    0.032787	    0.115225	    0.148012	    0.024783	    0.069937	    0.094720	    0.026055	    0.079322	    0.105377	   -0.007187	    0.030509	    0.023322	    0.014801	   -0.025847	   -0.011046	    0.003478	    0.000585	    0.004063	   -0.005220	    0.005830	    0.000610	    0.020376	    0.103767	    0.124143	    0.036403	    0.176791	    0.213193
     8.175	0	0	    0	    0.004865	    0.009472	    0.014337	    0.010812	   -0.001104	    0.009709	    0.012777	    0.006138	    0.018915	    0.006932	    0.009445	    0.016377	    0.022461	    0.025098	    0.047560	    0.023740	    0.033173	    0.056913	    0.057272	    0.140938	    0.198210	   -0.016864	    0.034677	    0.017814	    0.017117	    0.007403	    0.024520	    0.007810	    0.055857	    0.063667	    0.008651	    0.001602	    0.010253	    0.009327	    0.004925	    0.014252	    0.023828	    0.050217	    0.074045	    0.030524	    0.108232	    0.138756	    0.056616	    0.089939	    0.146555	    0.014635	    0.060656	    0.075291	   -0.011306	    0.033576	    0.022271	    0.018534	   -0.030927	   -0.012393	    0.004901	    0.000004	    0.004905	   -0.004263	    0.005703	    0.001441	    0.001330	    0.075800	    0.077130	    0.053013	    0.119215	    0.172228
     8.250	0	0	    0	    0.005705	    0.000945	    0.006651	    0.010381	    0.000079	    0.010460	    0.013154	    0.001709	    0.014863	    0.008841	    0.006137	    0.014978	    0.017642	    0.034601	    0.052243	    0.025721	    0.030042	    0.055763	    0.074459	    0.137119	    0.211579	   -0.020523	    0.033534	    0.013011	    0.019416	    0.007397	    0.026813	    0.014319	    0.057191	    0.071510	    0.008355	    0.002821	    0.011176	    0.009693	    0.007133	    0.016825	    0.024718	    0.054824	    0.079542	    0.033704	    0.110885	    0.144589	    0.074451	    0.102344	    0.176795	    0.015712	    0.043034	    0.058747	   -0.008244	    0.029676	    0.021433	    0.013155	   -0.021867	   -0.008711	    0.006061	   -0.000086	    0.005975	   -0.004011	    0.002454	   -0.001557	   -0.002389	    0.046140	    0.043751	    0.099722	    0.182698	    0.282420
     8.325	0	0	    0	    0.007037	    0.012618	    0.019655	    0.006579	    0.006895	    0.013474	    0.020016	   -0.005051	    0.014965	    0.003017	    0.010871	    0.013888	    0.015451	    0.039211	    0.054662	    0.021494	    0.031295	    0.052788	    0.083710	    0.150544	    0.234254	   -0.020718	    0.037882	    0.017164	    0.021580	    0.009813	    0.031392	    0.013173	    0.059639	    0.072812	    0.007386	    0.002937	    0.010323	    0.008958	    0.008283	    0.017241	    0.027128	    0.057716	    0.084844	    0.029603	    0.112046	    0.141649	    0.079804	    0.127045	    0.206849	    0.014553	    0.041812	    0.056365	   -0.000109	    0.023343	    0.023235	    0.020523	   -0.026989	   -0.006467	    0.005980	   -0.000489	    0.005491	   -0.005319	    0.001126	   -0.004194	   -0.006620	    0.038106	    0.031487	    0.139369	    0.217571	    0.356940
     8.400	0	0	    0	   -0.004136	    0.011762	    0.007626	    0.007440	    0.001715	    0.009155	    0.008005	    0.009453	    0.017458	    0.008687	    0.007210	    0.015897	    0.010968	    0.036250	    0.047218	    0.019127	    0.028931	    0.048059	    0.070727	    0.163419	    0.234146	   -0.023104	    0.033835	    0.010731	    0.019654	    0.009399	    0.029053	   -0.002085	    0.064741	    0.062656	    0.007818	    0.002604	    0.010422	    0.006640	    0.006359	    0.012999	    0.024843	    0.056809	    0.081652	    0.024168	    0.122248	    0.146415	    0.070828	    0.158705	    0.229533	    0.012078	    0.035370	    0.047448	    0.005112	    0.013717	    0.018829	    0.025083	   -0.032693	   -0.007610	    0.006391	   -0.001088	    0.005303	   -0.004941	   -0.001503	   -0.006444	   -0.009363	    0.034892	    0.025529	    0.147731	    0.223026	    0.370757
     8.475	0	0	    0	   -0.001632	    0.016872	    0.015240	    0.006680	    0.005388	    0.012069	    0.007953	    0.007319	    0.015273	    0.005085	    0.010455	    0.015540	    0.014553	    0.029477	    0.044030	    0.020170	    0.027639	    0.047809	    0.064078	    0.178949	    0.243028	   -0.026120	    0.036691	    0.010571	    0.021590	    0.007708	    0.029298	   -0.018090	    0.082360	    0.064270	    0.009223	    0.001391	    0.010613	    0.005290	    0.004393	    0.009683	    0.025147	    0.057480	    0.082628	    0.016149	    0.127792	    0.143941	    0.068410	    0.143264	    0.211673	    0.009992	    0.034306	    0.044298	    0.002063	    0.020613	    0.022676	    0.022316	   -0.029656	   -0.007341	    0.007106	   -0.000961	    0.006145	   -0.006032	   -0.001440	   -0.007472	   -0.007790	    0.031913	    0.024123	    0.124151	    0.215440	    0.339591
     8.550	0	0	    0	   -0.006692	    0.019940	    0.013248	    0.007330	    0.000712	    0.008042	    0.015403	   -0.000646	    0.014757	    0.006123	    0.011120	    0.017243	    0.014008	    0.034697	    0.048705	    0.026173	    0.030140	    0.056313	    0.073156	    0.154522	    0.227677	   -0.020924	    0.032713	    0.011789	    0.018705	    0.009271	    0.027975	    0.003878	    0.070612	    0.074489	    0.008847	    0.002440	    0.011287	    0.006420	    0.003877	    0.010297	    0.024155	    0.056432	    0.080587	    0.034633	    0.104890	    0.139522	    0.084163	    0.094545	    0.178708	    0.015064	    0.034478	    0.049542	    0.006177	    0.018557	    0.024734	    0.019650	   -0.025534	   -0.005884	    0.007210	   -0.000278	    0.006931	   -0.004591	   -0.000437	   -0.005028	    0.005556	    0.039429	    0.044985	    0.084587	    0.178046	    0.262632
     8.625	0	0	    0	    0.009451	    0.013803	    0.023253	    0.005994	    0.005314	    0.011308	    0.005536	    0.009448	    0.014984	    0.007534	    0.009113	    0.016647	    0.013298	    0.028860	    0.042159	    0.001844	    0.056465	    0.058310	    0.064656	    0.191775	    0.256431	   -0.006040	    0.050466	    0.044426	    0.019390	    0.008548	    0.027938	   -0.006196	    0.079661	    0.073465	    0.009795	    0.002013	    0.011807	    0.005736	    0.003601	    0.009337	    0.021782	    0.054040	    0.075822	    0.038386	    0.131411	    0.169797	    0.036944	    0.075268	    0.112212	    0.027516	    0.044405	    0.071921	    0.004585	    0.017968	    0.022553	    0.016729	   -0.025503	   -0.008773	    0.006458	    0.001148	    0.007607	   -0.000196	    0.001286	    0.001090	    0.046951	    0.057319	    0.104270	    0.129588	    0.207671	    0.337259
     8.700	0	0	    0	    0.007046	    0.025439	    0.032485	    0.010265	    0.004803	    0.015067	    0.007018	    0.007173	    0.014191	    0.008368	    0.008497	    0.016865	    0.013718	    0.027781	    0.041499	    0.008055	    0.049369	    0.057424	    0.055354	    0.203364	    0.258717	   -0.004023	    0.070508	    0.066485	    0.015150	    0.012763	    0.027912	   -0.002586	    0.075997	    0.073411	    0.008510	    0.004017	    0.012527	    0.004894	    0.004546	    0.009441	    0.018014	    0.053215	    0.071229	    0.048475	    0.133796	    0.182272	    0.026837	    0.115352	    0.142189	    0.045697	    0.074194	    0.119891	   -0.004850	    0.028472	    0.023622	    0.010109	   -0.019273	   -0.009165	    0.005516	    0.002381	    0.007898	    0.000944	    0.004459	    0.005403	    0.053166	    0.112982	    0.166148	    0.120621	    0.247058	    0.367679
     8.775	0	0	    0	    0.024309	    0.002714	    0.027023	    0.007287	    0.007830	    0.015117	    0.006922	    0.012112	    0.019034	    0.010803	    0.006964	    0.017767	    0.018374	    0.019604	    0.037978	   -0.000396	    0.056589	    0.056193	    0.044141	    0.209915	    0.254056	    0.001905	    0.069026	    0.070931	    0.017932	    0.008793	    0.026725	    0.006030	    0.067516	    0.073547	    0.008749	    0.003737	    0.012486	    0.006234	    0.001709	    0.007943	    0.018969	    0.050716	    0.069685	    0.047186	    0.136372	    0.183558	    0.030044	    0.115310	    0.145354	    0.047431	    0.085320	    0.132751	   -0.002606	    0.026476	    0.023870	    0.017722	   -0.027575	   -0.009853	    0.005519	    0.001817	    0.007336	    0.000381	    0.005008	    0.005389	    0.052356	    0.115478	    0.167834	    0.098220	    0.241649	    0.339869
     8.850	0	0	    0	    0.013659	    0.015308	    0.028967	    0.010096	    0.006187	    0.016282	    0.016282	    0.000026	    0.016308	    0.009857	    0.008157	    0.018014	    0.010915	    0.030706	    0.041621	    0.008732	    0.049859	    0.058590	    0.085320	    0.181849	    0.267169	   -0.007008	    0.073517	    0.066510	    0.015210	    0.010020	    0.025230	    0.003810	    0.069153	    0.072963	    0.008983	    0.002504	    0.011487	    0.004761	    0.002435	    0.007197	    0.016997	    0.052975	    0.069971	    0.047191	    0.136903	    0.184095	    0.051137	    0.087022	    0.138159	    0.039063	    0.084656	    0.123719	   -0.002509	    0.024636	    0.022127	    0.019501	   -0.029384	   -0.009883	    0.004881	    0.000514	    0.005395	   -0.000239	    0.004088	    0.003850	    0.034208	    0.118072	    0.152280	    0.055625	    0.206166	    0.261791
     8.925	0	0	    0	    0.006125	    0.013752	    0.019877	    0.010561	    0.002817	    0.013378	    0.013845	    0.003045	    0.016890	    0.010180	    0.005325	    0.015505	    0.017660	    0.023870	    0.041530	    0.015250	    0.042464	    0.057714	    0.086760	    0.180837	    0.267598	   -0.018201	    0.062324	    0.044124	    0.014384	    0.009593	    0.023978	    0.002146	    0.069269	    0.071415	    0.009615	    0.001422	    0.011036	    0.004625	    0.002719	    0.007344	    0.018597	    0.051481	    0.070078	    0.046253	    0.140893	    0.187146	    0.072418	    0.086945	    0.159363	    0.020119	    0.081110	    0.101229	   -0.002477	    0.025904	    0.023427	    0.018081	   -0.029909	   -0.011828	    0.002889	    0.000908	    0.003798	   -0.004402	    0.006020	    0.001618	    0.014183	    0.095723	    0.109906	    0.024740	    0.151516	    0.176256
     9.000	0	0	    0	    0.005645	    0.005981	    0.011626	    0.003640	    0.003499	    0.007139	    0.004677	    0.010082	    0.014759	    0.007244	    0.006184	    0.013428	    0.022118	    0.021572	    0.043689	    0.007618	    0.047906	    0.055525	    0.026214	    0.217277	    0.243491	   -0.025661	    0.047813	    0.022152	    0.010641	    0.010027	    0.020668	   -0.005502	    0.078646	    0.073145	    0.007991	    0.001442	    0.009433	    0.003834	    0.003720	    0.007554	    0.018917	    0.053213	    0.072130	    0.012097	    0.143748	    0.155845	    0.048923	    0.129581	    0.178504	    0.011008	    0.059717	    0.070726	   -0.011114	    0.029370	    0.018256	    0.013637	   -0.027622	   -0.013986	    0.001686	   -0.000475	    0.001211	   -0.010922	    0.003759	   -0.007164	   -0.010300	    0.070717	    0.060417	    0.026023	    0.146021	    0.172044
     9.075	0	0	    0	    0.012828	    0.004501	    0.017329	    0.003331	    0.001876	    0.005207	    0.004923	    0.005876	    0.010799	    0.005931	    0.006312	    0.012243	    0.020039	    0.029376	    0.049415	    0.008960	    0.042924	    0.051883	    0.036058	    0.189618	    0.225677	   -0.019719	    0.034259	    0.014540	    0.010020	    0.008211	    0.018231	    0.002606	    0.073171	    0.075777	    0.006124	    0.000761	    0.006885	    0.006323	    0.004458	    0.010780	    0.015933	    0.055352	    0.071285	    0.015744	    0.125234	    0.140978	    0.065230	    0.126158	    0.191387	    0.005806	    0.049576	    0.055382	   -0.004152	    0.019266	    0.015114	    0.020306	   -0.032727	   -0.012422	    0.002424	   -0.001280	    0.001144	   -0.012439	    0.000819	   -0.011621	   -0.012644	    0.049055	    0.036411	    0.048182	    0.146167	    0.194350
     9.150	0	0	    0	    0.015305	   -0.002046	    0.013260	    0.007075	    0.003271	    0.010346	    0.002962	    0.011346	    0.014308	    0.009111	    0.005359	    0.014470	    0.024950	    0.026526	    0.051476	    0.017308	    0.035175	    0.052483	    0.052247	    0.187673	    0.239920	   -0.013797	    0.031776	    0.017980	    0.014671	    0.007829	    0.022500	    0.016271	    0.055172	    0.071443	    0.008696	   -0.001128	    0.007568	    0.008240	    0.005036	    0.013276	    0.023296	    0.052399	    0.075694	    0.025464	    0.121614	    0.147078	    0.091818	    0.111695	    0.203513	    0.014449	    0.045672	    0.060121	    0.000299	    0.014565	    0.014864	    0.017148	   -0.027615	   -0.010467	    0.005564	   -0.002044	    0.003520	   -0.007052	   -0.000399	   -0.007450	   -0.004598	    0.048664	    0.044067	    0.077709	    0.183488	    0.261197
     9.225	0	0	    0	    0.018923	   -0.003268	    0.015656	    0.005789	    0.005800	    0.011588	    0.008460	    0.013729	    0.022189	    0.011074	    0.006182	    0.017256	    0.025819	    0.031230	    0.057049	    0.018487	    0.037046	    0.055533	    0.062002	    0.194895	    0.256897	   -0.017233	    0.036857	    0.019624	    0.013123	    0.012735	    0.025858	    0.016973	    0.054149	    0.071122	    0.009252	   -0.001492	    0.007760	    0.010205	    0.007169	    0.017374	    0.019682	    0.064169	    0.083850	    0.027696	    0.119795	    0.147491	    0.097602	    0.111577	    0.209179	    0.011078	    0.051347	    0.062425	   -0.005528	    0.027992	    0.022464	    0.025786	   -0.031592	   -0.005806	    0.007452	   -0.002190	    0.005262	   -0.006677	    0.003647	   -0.003031	   -0.003328	    0.048425	    0.045097	    0.098394	    0.205103	    0.303498
     9.300	0	0	    0	    0.000290	    0.023687	    0.023977	    0.008901	    0.004443	    0.013343	    0.006708	    0.014139	    0.020847	    0.006724	    0.011910	    0.018635	    0.011870	    0.045372	    0.057242	    0.016810	    0.038455	    0.055265	    0.056492	    0.196078	    0.252571	   -0.025482	    0.045892	    0.020410	    0.019255	    0.009213	    0.028467	   -0.001342	    0.090535	    0.089193	    0.011793	   -0.002338	    0.009454	    0.008214	    0.008650	    0.016864	    0.026480	    0.059050	    0.085530	    0.032766	    0.118940	    0.151706	    0.104024	    0.112120	    0.216144	    0.015992	    0.047293	    0.063285	   -0.003271	    0.030897	    0.027626	    0.026149	   -0.029231	   -0.003082	    0.009475	   -0.002167	    0.007308	   -0.002920	    0.002521	   -0.000400	    0.000823	    0.047010	    0.047833	    0.109950	    0.211505	    0.321455
     9.375	0	0	    0	    0.015096	    0.003264	    0.018360	    0.008194	    0.004628	    0.012823	    0.010519	    0.007628	    0.018147	    0.011431	    0.005941	    0.017372	    0.019141	    0.032705	    0.051846	    0.022134	    0.029158	    0.051292	    0.073975	    0.178514	    0.252489	   -0.022540	    0.039804	    0.017264	    0.021309	    0.007567	    0.028877	    0.013272	    0.062591	    0.075863	    0.011330	   -0.002387	    0.008943	    0.007423	    0.006759	    0.014182	    0.030140	    0.054575	    0.084715	    0.032817	    0.112517	    0.145333	    0.100265	    0.117742	    0.218006	    0.017921	    0.043152	    0.061074	    0.003067	    0.025562	    0.028629	    0.024923	   -0.029299	   -0.004376	    0.009260	   -0.001753	    0.007508	   -0.003125	    0.002737	   -0.000388	    0.001601	    0.045907	    0.047508	    0.112441	    0.194647	    0.307088
     9.450	0	0	    0	    0.015205	    0.000597	    0.015803	    0.008276	    0.003386	    0.011662	    0.008194	    0.008327	    0.016521	    0.010059	    0.007693	    0.017752	    0.023211	    0.027577	    0.050789	    0.022742	    0.032403	    0.055145	    0.077284	    0.178964	    0.256248	   -0.019608	    0.037836	    0.018228	    0.016932	    0.010187	    0.027119	    0.010240	    0.063807	    0.074047	    0.012119	   -0.002342	    0.009777	    0.008130	    0.005624	    0.013754	    0.025482	    0.057995	    0.083476	    0.026378	    0.121437	    0.147815	    0.095969	    0.122703	    0.218672	    0.016273	    0.044645	    0.060918	    0.000952	    0.024675	    0.025627	    0.026787	   -0.031142	   -0.004355	    0.009278	   -0.001093	    0.008185	   -0.003767	    0.001522	   -0.002245	    0.000293	    0.046647	    0.046940	    0.112390	    0.196091	    0.308481
     9.525	0	0	    0	    0.013691	   -0.002530	    0.011162	    0.008335	    0.001299	    0.009634	    0.015927	    0.000461	    0.016389	    0.008306	    0.008568	    0.016873	    0.025101	    0.025167	    0.050268	    0.025702	    0.028720	    0.054422	    0.094546	    0.154795	    0.249341	   -0.020885	    0.037727	    0.016842	    0.018749	    0.007150	    0.025900	   -0.003305	    0.077026	    0.073722	    0.011498	   -0.001945	    0.009553	    0.008043	    0.006205	    0.014248	    0.027069	    0.055523	    0.082591	    0.031242	    0.115845	    0.147086	    0.101916	    0.115685	    0.217601	    0.015106	    0.045630	    0.060737	    0.003950	    0.019541	    0.023491	    0.021621	   -0.027989	   -0.006369	    0.009115	   -0.000475	    0.008640	   -0.004238	    0.001523	   -0.002715	    0.000828	    0.044595	    0.045423	    0.124976	    0.206929	    0.331904
     9.600	0	0	    0	    0.008104	    0.003716	    0.011820	    0.007781	    0.000380	    0.008160	    0.011781	    0.000364	    0.012145	    0.007270	    0.006365	    0.013636	    0.020984	    0.026967	    0.047951	    0.019065	    0.029672	    0.048737	    0.092788	    0.153847	    0.246635	   -0.020798	    0.035334	    0.014536	    0.015633	    0.008453	    0.024086	    0.005621	    0.071962	    0.077584	    0.009761	   -0.000852	    0.008909	    0.006931	    0.007028	    0.013958	    0.023334	    0.057823	    0.081156	    0.026194	    0.123938	    0.150132	    0.096653	    0.133268	    0.229920	    0.009721	    0.045146	    0.054867	    0.001183	    0.026125	    0.027309	    0.023699	   -0.025725	   -0.002026	    0.008667	   -0.000866	    0.007801	   -0.004909	    0.001408	   -0.003501	   -0.004408	    0.044749	    0.040341	    0.140388	    0.227870	    0.368258
     9.675	0	0	    0	    0.013654	   -0.001595	    0.012059	    0.003202	    0.002477	    0.005679	    0.016078	   -0.004115	    0.011964	    0.008373	    0.006082	    0.014455	    0.022997	    0.025634	    0.048632	    0.019506	    0.026484	    0.045990	    0.065473	    0.181922	    0.247396	   -0.021588	    0.033680	    0.012092	    0.014259	    0.008608	    0.022866	    0.000880	    0.071813	    0.072694	    0.009568	   -0.001619	    0.007949	    0.005037	    0.005732	    0.010769	    0.017718	    0.062177	    0.079895	    0.025060	    0.122582	    0.147642	    0.075677	    0.152858	    0.228535	    0.005337	    0.045848	    0.051185	   -0.006692	    0.032110	    0.025419	    0.016519	   -0.022065	   -0.005546	    0.008094	   -0.000819	    0.007275	   -0.007366	    0.002713	   -0.004653	   -0.008795	    0.044112	    0.035318	    0.120946	    0.244503	    0.365449
     9.750	0	0	    0	   -0.000142	    0.007589	    0.007447	    0.005665	   -0.001251	    0.004414	    0.013070	   -0.001242	    0.011828	    0.007108	    0.006574	    0.013682	    0.016348	    0.030626	    0.046974	    0.019972	    0.035858	    0.055830	    0.083939	    0.166581	    0.250520	   -0.028603	    0.039507	    0.010904	    0.014683	    0.005674	    0.020357	   -0.002803	    0.074029	    0.071226	    0.011381	   -0.003298	    0.008083	    0.003575	    0.005755	    0.009330	    0.018963	    0.053654	    0.072617	    0.029544	    0.118930	    0.148474	    0.088503	    0.110885	    0.199387	    0.007369	    0.043554	    0.050923	    0.006551	    0.014583	    0.021134	    0.017470	   -0.025239	   -0.007769	    0.008271	   -0.001334	    0.006937	   -0.004423	   -0.000447	   -0.004870	    0.006272	    0.045575	    0.051848	    0.095876	    0.188020	    0.283896
     9.825	0	0	    0	    0.027366	   -0.005464	    0.021902	    0.001785	    0.003347	    0.005131	    0.001123	    0.010169	    0.011292	    0.010240	    0.004147	    0.014386	    0.024343	    0.022160	    0.046503	    0.005622	    0.054406	    0.060028	    0.068038	    0.204844	    0.272882	   -0.011732	    0.040442	    0.028711	    0.014443	    0.006104	    0.020547	   -0.015305	    0.091841	    0.076537	    0.010264	   -0.001853	    0.008411	    0.005917	    0.003144	    0.009061	    0.016421	    0.049225	    0.065646	    0.032387	    0.140415	    0.172802	    0.056812	    0.114674	    0.171486	    0.017390	    0.042544	    0.059934	   -0.000147	    0.022082	    0.021935	    0.020922	   -0.026316	   -0.005394	    0.007566	   -0.000470	    0.007096	   -0.002944	    0.002599	   -0.000345	    0.029004	    0.058790	    0.087794	    0.123126	    0.183473	    0.306599
     9.900	0	0	    0	    0.017567	    0.004383	    0.021950	    0.009999	   -0.003744	    0.006255	    0.013328	   -0.001567	    0.011761	    0.009753	    0.004772	    0.014526	    0.020568	    0.028053	    0.048621	    0.012022	    0.045824	    0.057846	    0.111248	    0.180947	    0.292195	   -0.004590	    0.068261	    0.063671	    0.011625	    0.006857	    0.018482	    0.022907	    0.050279	    0.073187	    0.010772	   -0.002022	    0.008750	    0.004908	    0.005782	    0.010691	    0.015975	    0.049227	    0.065202	    0.050701	    0.133434	    0.184134	    0.056025	    0.094142	    0.150167	    0.041054	    0.066492	    0.107546	   -0.004498	    0.029352	    0.024854	    0.021269	   -0.025877	   -0.004609	    0.007693	   -0.000067	    0.007626	    0.000637	    0.005875	    0.006511	    0.056606	    0.105685	    0.162290	    0.139804	    0.223870	    0.363674
