 [File Information]      		 [Data Line]	36
Measured Date	2024/05/27 092917
ID		Version	11.0
Name	oceane_1	[HeaderType]	11.0/11.0
Comment	
[Measurement Info.]
Holder Location	       0
Block Design	Off     
Pre.Rest Time	       0
Task Time	       0
Pos.Rest Time	       0
Loop	       0
Averaging	       1
Total Points	     889
[.INF File]
Filename	Cognitive1.INF
[Condition-1]
HV Switching	OFF
 R1 ,R2 ,R3 ,R4 ,R5 ,R6 ,R7 ,R8 
 120.00, 70.00,120.00,100.00, 90.00, 70.00,120.00,120.00
 Gain(X1,X4,X16,X64)
 R1 ,R2 ,R3 ,R4 ,R5 ,R6 ,R7 ,R8 
 1,1,1,1,1,1,1,1
[Analysis Condition]
Smoothed Type	None            
Smoothed Points	       0
Smoothed Loop	       0
Baseline Method	None            
Baseline location	
[Text Info.]
Output Mode	Continious      	Task No.		Data Type	Hb      
Time Range	    0.00	   66.60	Averaing	1
(1,3)(5,3)(5,7)(2,7)(2,4)(6,4)(6,8)(1,1)(3,3)(5,5)(7,7)(2,2)(4,4)(6,6)(8,8)(3,1)(3,5)(7,5)(7,2)(4,2)(4,6)(8,6)
         	     	     	     	    ch- 1	    ch- 1	    ch- 1	    ch- 2	    ch- 2	    ch- 2	    ch- 3	    ch- 3	    ch- 3	    ch- 4	    ch- 4	    ch- 4	    ch- 5	    ch- 5	    ch- 5	    ch- 6	    ch- 6	    ch- 6	    ch- 7	    ch- 7	    ch- 7	    ch- 8	    ch- 8	    ch- 8	    ch- 9	    ch- 9	    ch- 9	    ch-10	    ch-10	    ch-10	    ch-11	    ch-11	    ch-11	    ch-12	    ch-12	    ch-12	    ch-13	    ch-13	    ch-13	    ch-14	    ch-14	    ch-14	    ch-15	    ch-15	    ch-15	    ch-16	    ch-16	    ch-16	    ch-17	    ch-17	    ch-17	    ch-18	    ch-18	    ch-18	    ch-19	    ch-19	    ch-19	    ch-20	    ch-20	    ch-20	    ch-21	    ch-21	    ch-21	    ch-22	    ch-22	    ch-22
Time(sec)	Task	Mark	Count	    oxyHb   	  deoxyHb	  totalHb	    oxyHb   	  deoxyHb	  totalHb	    oxyHb   	  deoxyHb	  totalHb	    oxyHb   	  deoxyHb	  totalHb	    oxyHb   	  deoxyHb	  totalHb	    oxyHb   	  deoxyHb	  totalHb	    oxyHb   	  deoxyHb	  totalHb	    oxyHb   	  deoxyHb	  totalHb	    oxyHb   	  deoxyHb	  totalHb	    oxyHb   	  deoxyHb	  totalHb	    oxyHb   	  deoxyHb	  totalHb	    oxyHb   	  deoxyHb	  totalHb	    oxyHb   	  deoxyHb	  totalHb	    oxyHb   	  deoxyHb	  totalHb	    oxyHb   	  deoxyHb	  totalHb	    oxyHb   	  deoxyHb	  totalHb	    oxyHb   	  deoxyHb	  totalHb	    oxyHb   	  deoxyHb	  totalHb	    oxyHb   	  deoxyHb	  totalHb	    oxyHb   	  deoxyHb	  totalHb	    oxyHb   	  deoxyHb	  totalHb	    oxyHb   	  deoxyHb	  totalHb
     0.000	0	0Z	    0	    0.000000	    0.000000	    0.000000	    0.000000	    0.000000	    0.000000	    0.000000	    0.000000	    0.000000	    0.000000	    0.000000	    0.000000	    0.000000	    0.000000	    0.000000	    0.000000	    0.000000	    0.000000	    0.000000	    0.000000	    0.000000	    0.000000	    0.000000	    0.000000	    0.000000	    0.000000	    0.000000	    0.000000	    0.000000	    0.000000	    0.000000	    0.000000	    0.000000	    0.000000	    0.000000	    0.000000	    0.000000	    0.000000	    0.000000	    0.000000	    0.000000	    0.000000	    0.000000	    0.000000	    0.000000	    0.000000	    0.000000	    0.000000	    0.000000	    0.000000	    0.000000	    0.000000	    0.000000	    0.000000	    0.000000	    0.000000	    0.000000	    0.000000	    0.000000	    0.000000	    0.000000	    0.000000	    0.000000	    0.000000	    0.000000	    0.000000
     0.075	0	0	    0	    0.007921	   -0.008383	   -0.000462	   -0.005370	    0.004045	   -0.001325	   -0.006009	    0.006666	    0.000657	    0.001731	   -0.001763	   -0.000032	   -0.000669	    0.004091	    0.003421	   -0.008201	   -0.000131	   -0.008332	   -0.022581	    0.035256	    0.012676	   -0.001140	   -0.002474	   -0.003615	    0.000381	   -0.001148	   -0.000767	   -0.013414	    0.018451	    0.005037	   -0.001684	    0.000205	   -0.001479	    0.000583	    0.000400	    0.000983	   -0.001745	    0.003087	    0.001342	   -0.004940	   -0.007661	   -0.012602	   -0.000960	    0.005627	    0.004667	   -0.001519	   -0.006996	   -0.008515	   -0.001539	    0.005445	    0.003906	   -0.004663	    0.006974	    0.002311	   -0.000631	   -0.000060	   -0.000691	   -0.001149	   -0.000671	   -0.001820	   -0.003863	   -0.006979	   -0.010842	   -0.003638	    0.030481	    0.026843
     0.150	0	0	    0	   -0.003503	   -0.006266	   -0.009769	   -0.009863	    0.005544	   -0.004319	   -0.013664	    0.012091	   -0.001574	   -0.001120	   -0.001558	   -0.002677	   -0.002552	    0.004823	    0.002271	   -0.021629	    0.017371	   -0.004258	   -0.036162	    0.052479	    0.016317	   -0.004115	   -0.003623	   -0.007738	   -0.000939	   -0.002366	   -0.003305	   -0.024352	    0.031168	    0.006816	   -0.001453	    0.000019	   -0.001434	   -0.001179	    0.001087	   -0.000092	   -0.006208	    0.006340	    0.000132	    0.002770	   -0.020231	   -0.017460	   -0.015735	    0.011107	   -0.004628	   -0.003472	   -0.008418	   -0.011890	    0.001801	    0.000733	    0.002535	    0.003775	   -0.004703	   -0.000928	    0.000312	   -0.000065	    0.000247	   -0.002390	   -0.000763	   -0.003153	    0.002906	   -0.014536	   -0.011629	   -0.035141	    0.004590	   -0.030551
     0.225	0	0	    0	    0.000348	   -0.007046	   -0.006698	   -0.008921	    0.002020	   -0.006901	   -0.002739	    0.000938	   -0.001801	    0.002866	   -0.004474	   -0.001608	   -0.003796	    0.004271	    0.000475	   -0.030281	    0.027410	   -0.002872	   -0.022153	    0.031964	    0.009811	   -0.001646	   -0.011612	   -0.013258	   -0.004567	   -0.000261	   -0.004828	   -0.022486	    0.016104	   -0.006382	   -0.001037	    0.000909	   -0.000127	   -0.000531	   -0.002430	   -0.002961	   -0.011591	    0.003383	   -0.008208	    0.011833	    0.014329	    0.026162	   -0.025872	    0.001803	   -0.024068	    0.004597	   -0.006178	   -0.001581	   -0.004251	    0.007127	    0.002876	    0.005492	   -0.006447	   -0.000955	   -0.000761	    0.001005	    0.000244	   -0.001067	    0.000137	   -0.000930	    0.026567	    0.009941	    0.036508	   -0.021760	   -0.007881	   -0.029642
     0.300	0	0	    0	    0.009081	   -0.013170	   -0.004088	   -0.004533	   -0.000409	   -0.004942	   -0.005740	    0.006736	    0.000997	    0.002760	   -0.002637	    0.000124	   -0.000606	   -0.004563	   -0.005169	   -0.024662	    0.008654	   -0.016008	   -0.003351	    0.037461	    0.034110	    0.012428	   -0.003758	    0.008670	   -0.003353	   -0.003981	   -0.007335	   -0.018302	    0.021713	    0.003411	   -0.001694	    0.001261	   -0.000433	   -0.002078	   -0.000787	   -0.002865	   -0.009103	   -0.006943	   -0.016047	    0.029475	    0.021080	    0.050555	   -0.030530	    0.011950	   -0.018580	    0.034134	    0.006026	    0.040160	    0.001925	    0.000654	    0.002579	   -0.005647	    0.005426	   -0.000221	   -0.001468	    0.001420	   -0.000047	    0.001798	    0.000296	    0.002095	    0.052186	    0.044051	    0.096236	   -0.019158	    0.056061	    0.036903
     0.375	0	0	    0	    0.001058	    0.008706	    0.009764	   -0.006530	    0.004220	   -0.002310	   -0.007547	    0.005700	   -0.001847	    0.000330	    0.000013	    0.000343	   -0.010511	    0.006898	   -0.003613	   -0.023741	    0.008285	   -0.015456	   -0.017408	    0.030839	    0.013431	    0.019995	    0.020838	    0.040832	   -0.005886	   -0.001952	   -0.007838	   -0.009666	    0.010121	    0.000455	   -0.001881	    0.000713	   -0.001168	   -0.002554	   -0.000185	   -0.002739	   -0.011442	   -0.004528	   -0.015970	    0.013803	    0.026701	    0.040503	   -0.065008	    0.017596	   -0.047412	    0.025012	    0.029994	    0.055006	   -0.002358	    0.005557	    0.003200	   -0.000420	   -0.001461	   -0.001881	   -0.004007	    0.002099	   -0.001908	    0.000703	    0.003597	    0.004300	    0.034760	    0.067543	    0.102303	   -0.078845	    0.033402	   -0.045443
     0.450	0	0	    0	    0.013225	   -0.003306	    0.009918	   -0.007999	    0.004508	   -0.003491	   -0.001518	   -0.000583	   -0.002101	    0.003930	   -0.004747	   -0.000817	   -0.001226	   -0.005326	   -0.006552	   -0.018101	    0.003594	   -0.014507	   -0.043379	    0.024103	   -0.019275	    0.015649	    0.029604	    0.045253	   -0.007379	   -0.003046	   -0.010426	   -0.008493	    0.014334	    0.005841	   -0.002588	    0.000019	   -0.002569	   -0.002324	   -0.000275	   -0.002599	   -0.010185	   -0.007815	   -0.018000	   -0.009103	    0.016904	    0.007801	   -0.052474	    0.006649	   -0.045825	    0.007593	    0.021525	    0.029118	   -0.002135	    0.002685	    0.000550	   -0.005704	    0.001692	   -0.004012	   -0.006028	    0.001010	   -0.005018	   -0.004440	    0.005240	    0.000800	    0.004524	    0.043440	    0.047964	   -0.093777	   -0.029446	   -0.123222
     0.525	0	0	    0	   -0.004494	    0.001554	   -0.002940	   -0.010877	    0.003378	   -0.007499	   -0.010905	    0.004580	   -0.006325	   -0.002511	   -0.002957	   -0.005468	   -0.004032	    0.003493	   -0.000539	   -0.023599	    0.011982	   -0.011617	   -0.041733	    0.023443	   -0.018289	   -0.012895	    0.010456	   -0.002440	   -0.009603	   -0.003833	   -0.013436	   -0.025487	    0.025414	   -0.000073	   -0.003532	   -0.001141	   -0.004673	   -0.005595	    0.000583	   -0.005012	   -0.012673	   -0.001662	   -0.014336	   -0.020241	    0.010065	   -0.010176	   -0.019990	    0.006333	   -0.013657	   -0.012778	    0.000866	   -0.011912	   -0.014558	    0.008061	   -0.006497	    0.000519	   -0.005281	   -0.004761	   -0.005640	   -0.001477	   -0.007117	   -0.011724	    0.001606	   -0.010119	   -0.021480	    0.005482	   -0.015998	   -0.031250	   -0.017535	   -0.048785
     0.600	0	0	    0	   -0.016490	    0.010970	   -0.005520	   -0.007216	    0.001822	   -0.005394	   -0.006126	    0.003109	   -0.003018	   -0.008272	    0.002854	   -0.005418	   -0.011326	    0.010004	   -0.001321	   -0.017312	    0.006491	   -0.010821	   -0.033021	    0.042351	    0.009330	   -0.017140	    0.001288	   -0.015853	   -0.008985	   -0.002311	   -0.011296	   -0.031923	    0.026672	   -0.005250	   -0.003027	   -0.001685	   -0.004712	   -0.006566	    0.001515	   -0.005051	   -0.013294	    0.002886	   -0.010408	   -0.011420	   -0.006770	   -0.018190	   -0.000125	    0.001404	    0.001279	   -0.013097	   -0.006821	   -0.019918	   -0.008479	    0.001203	   -0.007276	    0.002776	   -0.006172	   -0.003397	   -0.002401	   -0.001404	   -0.003805	   -0.010603	    0.000504	   -0.010099	   -0.008710	   -0.008323	   -0.017033	    0.015500	    0.027460	    0.042959
     0.675	0	0	    0	   -0.001457	   -0.001451	   -0.002908	   -0.005416	    0.005437	    0.000021	   -0.004990	    0.005392	    0.000403	    0.000821	   -0.005702	   -0.004881	   -0.001521	    0.010062	    0.008541	   -0.004861	    0.004451	   -0.000410	   -0.019566	    0.055646	    0.036081	   -0.000301	   -0.004194	   -0.004496	    0.002973	   -0.003637	   -0.000664	   -0.026091	    0.043090	    0.016999	    0.000406	   -0.001464	   -0.001058	   -0.001650	    0.000435	   -0.001215	   -0.004272	    0.005162	    0.000891	   -0.008346	   -0.003658	   -0.012004	   -0.000352	    0.019464	    0.019112	   -0.000092	   -0.007260	   -0.007352	    0.005420	    0.000637	    0.006057	    0.007977	   -0.000991	    0.006986	    0.001584	   -0.000634	    0.000950	   -0.003098	    0.000951	   -0.002147	   -0.000493	   -0.008192	   -0.008684	   -0.004125	    0.046000	    0.041875
     0.750	0	0	    0	   -0.017096	    0.011746	   -0.005350	   -0.004144	    0.003853	   -0.000292	   -0.005493	    0.009734	    0.004241	   -0.001259	    0.002443	    0.001184	   -0.010379	    0.014755	    0.004377	   -0.006752	    0.006802	    0.000050	   -0.034872	    0.047931	    0.013059	   -0.008244	    0.007152	   -0.001092	    0.003316	   -0.000366	    0.002950	   -0.019356	    0.029094	    0.009738	    0.002070	   -0.000285	    0.001785	   -0.001248	    0.002303	    0.001055	   -0.000392	    0.002281	    0.001889	    0.017570	   -0.001108	    0.016462	   -0.022332	    0.021810	   -0.000522	    0.008116	   -0.004800	    0.003316	    0.001793	    0.006534	    0.008327	    0.004887	    0.000498	    0.005385	    0.003228	    0.000607	    0.003834	    0.002916	    0.002566	    0.005482	    0.023579	    0.000743	    0.024322	   -0.025221	   -0.002724	   -0.027945
     0.825	0	0	    0	   -0.007940	    0.003437	   -0.004503	   -0.001649	    0.002268	    0.000619	   -0.002650	    0.004950	    0.002300	    0.004486	   -0.000544	    0.003942	   -0.000910	    0.003312	    0.002402	   -0.016302	    0.014712	   -0.001590	   -0.002582	    0.021682	    0.019100	    0.009652	   -0.003596	    0.006056	    0.004976	   -0.000629	    0.004348	   -0.007549	    0.008559	    0.001011	    0.003210	    0.000741	    0.003951	    0.001549	   -0.001023	    0.000525	   -0.002291	    0.000364	   -0.001927	    0.024890	    0.030865	    0.055755	   -0.018885	    0.012295	   -0.006589	    0.027527	    0.000425	    0.027953	    0.001608	    0.006353	    0.007962	    0.005561	   -0.001119	    0.004442	    0.003507	    0.001583	    0.005090	    0.006457	    0.004195	    0.010651	    0.052817	    0.023074	    0.075891	   -0.012372	    0.031825	    0.019453
     0.900	0	0	    0	    0.007176	   -0.002422	    0.004753	   -0.000737	    0.005287	    0.004550	   -0.009890	    0.012320	    0.002431	    0.007761	   -0.002532	    0.005229	    0.002275	   -0.005029	   -0.002754	   -0.026951	    0.017741	   -0.009210	   -0.024226	    0.077720	    0.053494	    0.033185	   -0.000602	    0.032582	    0.003802	    0.001865	    0.005667	   -0.025473	    0.039987	    0.014514	    0.003934	    0.001437	    0.005371	    0.002776	   -0.001225	    0.001551	   -0.004988	   -0.000128	   -0.005116	    0.038726	    0.042365	    0.081091	   -0.019654	    0.032681	    0.013027	    0.037455	    0.027290	    0.064744	    0.002078	    0.009236	    0.011314	    0.005561	   -0.000300	    0.005261	    0.003328	    0.002848	    0.006176	    0.008475	    0.006474	    0.014950	    0.067415	    0.061758	    0.129173	   -0.014120	    0.071767	    0.057647
     0.975	0	0	    0	    0.012640	    0.000832	    0.013473	    0.003948	    0.002571	    0.006519	    0.007848	   -0.002296	    0.005552	    0.009104	   -0.002290	    0.006813	    0.001902	   -0.004028	   -0.002126	   -0.025424	    0.016615	   -0.008809	   -0.007258	    0.056721	    0.049464	    0.035618	    0.018513	    0.054130	    0.005661	   -0.000010	    0.005651	   -0.015815	    0.025509	    0.009693	    0.003751	    0.002119	    0.005870	    0.003614	   -0.000926	    0.002688	   -0.002579	   -0.003917	   -0.006496	    0.023599	    0.047164	    0.070762	   -0.030317	    0.022024	   -0.008293	    0.031002	    0.036066	    0.067068	   -0.006075	    0.021332	    0.015257	    0.007694	   -0.001420	    0.006274	    0.003932	    0.002768	    0.006700	    0.011089	    0.006406	    0.017495	    0.047872	    0.072711	    0.120583	   -0.057117	    0.038869	   -0.018248
     1.050	0	0	    0	    0.022386	   -0.003765	    0.018620	    0.007197	   -0.000802	    0.006394	    0.008840	   -0.001437	    0.007403	    0.014517	   -0.004356	    0.010162	    0.005046	   -0.008019	   -0.002973	   -0.011242	    0.004443	   -0.006800	   -0.002319	    0.028118	    0.025799	    0.034903	    0.027233	    0.062136	    0.003296	    0.000900	    0.004196	   -0.003500	    0.010167	    0.006667	    0.005150	    0.000859	    0.006009	    0.004095	   -0.001115	    0.002980	    0.000163	   -0.004270	   -0.004107	    0.030967	    0.033292	    0.064259	   -0.025748	    0.016541	   -0.009207	    0.031950	    0.026759	    0.058710	    0.003593	    0.007800	    0.011393	    0.010318	   -0.006227	    0.004091	    0.003434	    0.002131	    0.005565	    0.012179	    0.005840	    0.018018	    0.043523	    0.055961	    0.099485	   -0.068744	   -0.003406	   -0.072150
     1.125	0	0	    0	    0.010494	    0.003547	    0.014041	   -0.000459	    0.003848	    0.003389	    0.002783	    0.005259	    0.008042	    0.011780	   -0.003284	    0.008496	    0.005649	   -0.008750	   -0.003102	   -0.006370	    0.009546	    0.003176	   -0.034212	    0.057734	    0.023522	    0.026667	    0.022901	    0.049568	    0.003565	   -0.001462	    0.002103	   -0.004902	    0.012175	    0.007273	    0.003546	    0.000880	    0.004426	    0.004243	   -0.000683	    0.003561	    0.002209	   -0.002264	   -0.000055	    0.002365	    0.051600	    0.053965	   -0.032215	    0.031841	   -0.000374	    0.023860	    0.016816	    0.040676	   -0.003465	    0.011885	    0.008420	    0.005453	   -0.002971	    0.002483	    0.002247	    0.001375	    0.003622	    0.007903	    0.005894	    0.013797	    0.025248	    0.048996	    0.074244	   -0.064002	   -0.016897	   -0.080899
     1.200	0	0	    0	   -0.000926	    0.018841	    0.017915	   -0.000634	    0.000789	    0.000156	    0.002851	   -0.001905	    0.000946	    0.007370	   -0.003334	    0.004035	    0.000833	    0.005943	    0.006776	    0.005970	   -0.000960	    0.005010	    0.004938	    0.009067	    0.014006	    0.012348	    0.014533	    0.026881	    0.001132	   -0.000707	    0.000425	    0.001727	    0.002690	    0.004417	    0.001984	    0.000666	    0.002650	    0.002962	    0.001571	    0.004533	    0.004877	    0.000844	    0.005721	    0.002741	    0.025087	    0.027829	   -0.008861	    0.037792	    0.028930	    0.010200	    0.008667	    0.018866	    0.001658	    0.002776	    0.004435	    0.002226	   -0.000892	    0.001333	    0.001297	    0.000489	    0.001786	    0.004062	    0.002835	    0.006897	    0.005216	    0.020504	    0.025720	   -0.042069	    0.013553	   -0.028516
     1.275	0	0	    0	    0.003402	    0.000707	    0.004109	   -0.001715	    0.001028	   -0.000687	    0.001718	   -0.002969	   -0.001251	    0.003292	   -0.001606	    0.001685	    0.007088	    0.002430	    0.009518	    0.004663	   -0.004188	    0.000475	    0.007837	    0.016423	    0.024260	    0.002472	    0.003188	    0.005660	    0.000791	   -0.003470	   -0.002679	   -0.010156	    0.021196	    0.011040	   -0.002288	    0.000441	   -0.001847	    0.003069	    0.001741	    0.004810	    0.002166	    0.002981	    0.005147	    0.001630	    0.002491	    0.004121	   -0.009797	    0.025828	    0.016031	    0.002133	   -0.003169	   -0.001036	    0.001648	    0.002292	    0.003940	    0.004110	   -0.001617	    0.002492	   -0.000187	   -0.000598	   -0.000785	   -0.000030	    0.002310	    0.002280	    0.000355	    0.001396	    0.001751	   -0.021636	    0.023361	    0.001724
     1.350	0	0	    0	    0.005149	   -0.002367	    0.002781	   -0.005980	    0.002633	   -0.003347	   -0.006814	    0.007260	    0.000445	   -0.000879	   -0.000374	   -0.001253	    0.001796	    0.008582	    0.010377	   -0.017298	    0.015221	   -0.002077	   -0.028554	    0.050479	    0.021925	   -0.003087	    0.003258	    0.000171	   -0.004270	   -0.001875	   -0.006145	   -0.016224	    0.029270	    0.013046	   -0.005747	   -0.000280	   -0.006027	    0.000238	    0.003127	    0.003366	   -0.004297	    0.010798	    0.006501	   -0.013530	    0.004792	   -0.008738	   -0.004017	    0.019271	    0.015254	   -0.007185	   -0.002465	   -0.009650	   -0.008661	    0.014390	    0.005729	   -0.002886	    0.003541	    0.000654	   -0.002894	   -0.000816	   -0.003711	   -0.002707	    0.001216	   -0.001492	   -0.004987	   -0.002281	   -0.007268	   -0.021755	    0.033420	    0.011664
     1.425	0	0	    0	   -0.005283	    0.003342	   -0.001940	   -0.004787	   -0.001224	   -0.006011	   -0.003305	    0.002470	   -0.000836	   -0.002292	   -0.001342	   -0.003634	    0.002096	    0.004931	    0.007027	   -0.004481	    0.006420	    0.001938	   -0.010187	    0.041873	    0.031686	   -0.005947	    0.000674	   -0.005273	   -0.002855	   -0.004673	   -0.007528	   -0.002782	    0.003979	    0.001197	   -0.004260	   -0.003781	   -0.008040	   -0.001752	    0.002010	    0.000258	   -0.001315	    0.004084	    0.002769	   -0.016254	    0.003712	   -0.012542	   -0.000329	    0.019958	    0.019629	   -0.003593	   -0.012390	   -0.015983	   -0.005570	    0.009223	    0.003653	   -0.005079	   -0.000939	   -0.006018	   -0.003279	   -0.002446	   -0.005725	   -0.005395	    0.000795	   -0.004601	   -0.008280	   -0.004184	   -0.012463	   -0.029072	    0.032994	    0.003921
     1.500	0	0	    0	   -0.002141	   -0.005536	   -0.007677	   -0.008025	   -0.002083	   -0.010109	   -0.009101	    0.007634	   -0.001467	   -0.000138	   -0.004908	   -0.005046	   -0.006378	    0.009129	    0.002751	   -0.014127	    0.012789	   -0.001338	   -0.016792	    0.039384	    0.022592	   -0.007604	   -0.000831	   -0.008436	   -0.004828	   -0.005416	   -0.010244	   -0.026908	    0.025984	   -0.000924	   -0.004836	   -0.003356	   -0.008192	   -0.005213	    0.001544	   -0.003669	   -0.005697	    0.004855	   -0.000842	   -0.010127	   -0.011893	   -0.022020	   -0.010764	    0.027140	    0.016376	   -0.006375	   -0.007691	   -0.014066	   -0.011502	    0.009760	   -0.001743	   -0.004570	   -0.002740	   -0.007310	   -0.003911	   -0.002410	   -0.006321	   -0.007093	   -0.000254	   -0.007347	   -0.008656	   -0.009669	   -0.018325	   -0.065300	    0.027957	   -0.037343
     1.575	0	0	    0	    0.006526	   -0.017308	   -0.010782	   -0.006574	   -0.002186	   -0.008760	   -0.002923	    0.001992	   -0.000931	    0.003831	   -0.007808	   -0.003977	    0.000759	   -0.002527	   -0.001768	   -0.013179	    0.012409	   -0.000770	   -0.010958	    0.043028	    0.032070	    0.001801	   -0.010116	   -0.008316	   -0.004625	   -0.004263	   -0.008888	    0.009023	   -0.006259	    0.002764	   -0.000849	   -0.003555	   -0.004404	   -0.005135	   -0.001117	   -0.006252	   -0.008577	    0.002975	   -0.005601	    0.004530	    0.006516	    0.011046	   -0.027680	    0.040674	    0.012994	    0.000205	   -0.007330	   -0.007125	   -0.012995	    0.014721	    0.001727	   -0.006385	    0.006006	   -0.000379	   -0.000333	   -0.001038	   -0.001370	   -0.002691	    0.000472	   -0.002219	    0.015354	   -0.000087	    0.015267	   -0.047044	   -0.006074	   -0.053118
     1.650	0	0	    0	    0.003134	   -0.002317	    0.000817	   -0.003287	    0.002389	   -0.000898	   -0.001483	    0.007247	    0.005764	    0.005443	   -0.003251	    0.002192	   -0.006634	    0.004174	   -0.002460	   -0.026144	    0.028557	    0.002413	   -0.038579	    0.081346	    0.042768	    0.015495	   -0.006528	    0.008967	    0.004270	   -0.002858	    0.001412	   -0.032031	    0.041223	    0.009192	    0.002869	   -0.002680	    0.000190	   -0.002178	   -0.000749	   -0.002927	    0.000133	   -0.002654	   -0.002521	    0.012720	    0.040812	    0.053532	   -0.012735	    0.027994	    0.015259	    0.019732	   -0.005042	    0.014691	    0.006517	    0.001431	    0.007948	    0.006335	   -0.005183	    0.001151	    0.002613	    0.000833	    0.003446	    0.006139	    0.002485	    0.008624	    0.044276	    0.023520	    0.067796	   -0.016390	    0.008501	   -0.007890
     1.725	0	0	    0	    0.017418	   -0.010332	    0.007087	    0.004876	    0.000087	    0.004962	    0.006427	    0.003678	    0.010105	    0.012008	   -0.005098	    0.006909	    0.003426	   -0.002751	    0.000675	   -0.013793	    0.017981	    0.004188	    0.013227	    0.064103	    0.077331	    0.032375	   -0.010509	    0.021866	    0.006290	   -0.000346	    0.005944	   -0.007357	    0.017172	    0.009815	    0.005119	   -0.002074	    0.003045	    0.001403	   -0.001037	    0.000366	    0.001198	   -0.000768	    0.000431	    0.041357	    0.031238	    0.072595	   -0.019157	    0.032920	    0.013763	    0.043273	    0.001203	    0.044476	    0.001167	    0.015326	    0.016493	    0.003206	    0.001436	    0.004642	    0.005315	    0.001688	    0.007002	    0.011964	    0.004866	    0.016830	    0.067932	    0.043795	    0.111727	    0.006548	    0.056847	    0.063395
     1.800	0	0	    0	    0.029019	   -0.003404	    0.025615	    0.006572	    0.004386	    0.010958	    0.011987	    0.006085	    0.018072	    0.016994	   -0.005521	    0.011473	    0.008996	   -0.009272	   -0.000276	   -0.018639	    0.024057	    0.005418	   -0.019134	    0.093488	    0.074355	    0.047770	    0.015823	    0.063593	    0.010899	   -0.002025	    0.008873	   -0.018905	    0.036627	    0.017722	    0.005565	   -0.001084	    0.004481	    0.004180	   -0.001637	    0.002543	    0.007200	   -0.006073	    0.001127	    0.032170	    0.048846	    0.081016	   -0.036068	    0.032039	   -0.004029	    0.060538	    0.030371	    0.090908	    0.008777	    0.008389	    0.017166	    0.006345	   -0.001697	    0.004648	    0.004548	    0.002657	    0.007205	    0.016266	    0.006307	    0.022572	    0.068295	    0.075837	    0.144132	   -0.059061	    0.078132	    0.019071
     1.875	0	0	    0	    0.018694	    0.005283	    0.023977	    0.005530	    0.002577	    0.008107	    0.008987	    0.003430	    0.012418	    0.014157	   -0.001713	    0.012444	    0.003035	   -0.002244	    0.000792	   -0.003664	    0.014327	    0.010664	   -0.017842	    0.046876	    0.029034	    0.037393	    0.030533	    0.067926	    0.009822	   -0.001481	    0.008340	    0.008186	   -0.002072	    0.006114	    0.005274	   -0.001349	    0.003925	    0.003319	   -0.000040	    0.003279	    0.002872	   -0.000723	    0.002149	    0.011016	    0.040893	    0.051909	   -0.032612	    0.026520	   -0.006092	    0.036819	    0.030898	    0.067717	    0.003640	    0.009068	    0.012707	   -0.000990	    0.004715	    0.003725	    0.004295	    0.001914	    0.006209	    0.013586	    0.008079	    0.021664	    0.041872	    0.057434	    0.099306	   -0.061177	    0.005182	   -0.055995
     1.950	0	0	    0	    0.004438	    0.012922	    0.017360	    0.004308	    0.001002	    0.005310	    0.010647	   -0.003697	    0.006950	    0.010611	    0.001023	    0.011634	   -0.000283	    0.003585	    0.003302	    0.004916	    0.005255	    0.010170	   -0.018211	    0.045936	    0.027725	    0.018577	    0.016868	    0.035445	    0.007587	    0.000040	    0.007627	   -0.008981	    0.017256	    0.008276	    0.005264	   -0.001954	    0.003310	    0.001923	    0.001416	    0.003339	    0.006316	    0.000631	    0.006947	    0.007972	    0.024024	    0.031996	   -0.003733	    0.037545	    0.033812	    0.014866	    0.011332	    0.026198	    0.001752	    0.009637	    0.011389	    0.006398	   -0.003337	    0.003062	    0.004279	    0.000991	    0.005270	    0.007178	    0.005693	    0.012871	    0.014312	    0.024335	    0.038647	   -0.021360	    0.010493	   -0.010867
     2.025	0	0	    0	    0.004009	    0.011749	    0.015758	    0.004959	   -0.001120	    0.003839	    0.007676	   -0.000413	    0.007263	    0.009616	    0.002720	    0.012335	    0.004497	    0.006809	    0.011306	    0.006409	    0.005032	    0.011441	    0.012828	    0.029848	    0.042676	    0.016327	    0.006040	    0.022367	    0.011390	   -0.002132	    0.009258	   -0.015225	    0.023947	    0.008723	    0.004722	   -0.002211	    0.002510	    0.001556	    0.002402	    0.003958	    0.009221	    0.002211	    0.011432	    0.010381	   -0.001684	    0.008697	    0.010934	    0.016477	    0.027411	    0.014675	   -0.002429	    0.012245	    0.000270	    0.014671	    0.014941	    0.007924	   -0.002042	    0.005881	    0.004279	    0.000991	    0.005270	    0.006912	    0.001440	    0.008351	    0.011802	    0.004255	    0.016057	    0.014674	    0.051292	    0.065966
     2.100	0	0	    0	    0.023898	   -0.013418	    0.010480	    0.004996	   -0.002934	    0.002062	    0.006196	   -0.002333	    0.003863	    0.012640	   -0.002855	    0.009786	    0.006724	   -0.000415	    0.006309	    0.011246	   -0.007541	    0.003705	    0.009406	    0.034240	    0.043647	    0.019293	   -0.002549	    0.016744	    0.007951	   -0.000183	    0.007768	   -0.008896	    0.010522	    0.001626	    0.003666	   -0.001376	    0.002290	    0.001508	    0.000807	    0.002314	    0.003193	    0.006439	    0.009632	    0.002333	    0.000737	    0.003070	   -0.002539	    0.039513	    0.036974	    0.009697	   -0.005071	    0.004627	   -0.002192	    0.014693	    0.012501	    0.009856	   -0.006849	    0.003008	    0.003963	    0.001414	    0.005377	    0.004140	    0.001521	    0.005661	    0.005466	   -0.002849	    0.002618	    0.002574	    0.076140	    0.078713
     2.175	0	0	    0	    0.016129	   -0.008701	    0.007428	    0.000037	    0.000617	    0.000654	   -0.001438	    0.004685	    0.003247	    0.010015	   -0.001927	    0.008088	    0.004672	    0.001102	    0.005774	   -0.005511	    0.012519	    0.007007	   -0.010416	    0.057101	    0.046685	    0.014427	   -0.003554	    0.010873	    0.009189	   -0.002986	    0.006203	   -0.004440	    0.009285	    0.004845	    0.004116	   -0.000849	    0.003267	    0.000352	    0.000490	    0.000842	    0.003154	    0.002448	    0.005602	    0.007426	   -0.006857	    0.000570	   -0.006237	    0.024828	    0.018592	    0.015045	   -0.012938	    0.002107	    0.007821	    0.002893	    0.010714	    0.006345	   -0.001697	    0.004648	    0.004768	    0.001839	    0.006607	    0.006243	   -0.003253	    0.002990	    0.022575	   -0.013733	    0.008841	   -0.031462	    0.032579	    0.001117
     2.250	0	0	    0	    0.005250	   -0.001673	    0.003577	   -0.000275	   -0.001829	   -0.002103	   -0.000828	    0.001860	    0.001032	    0.011494	   -0.003797	    0.007698	   -0.001298	    0.004335	    0.003037	   -0.000187	    0.000240	    0.000053	    0.001447	    0.012207	    0.013654	    0.012380	   -0.006730	    0.005650	    0.007636	   -0.004176	    0.003460	    0.004911	    0.003370	    0.008281	    0.004069	   -0.000141	    0.003929	    0.000046	    0.000051	    0.000097	    0.000445	   -0.002599	   -0.002154	    0.012586	    0.016352	    0.028938	   -0.024477	    0.012931	   -0.011546	    0.020226	   -0.006887	    0.013339	    0.006965	    0.003523	    0.010489	    0.001482	    0.002373	    0.003855	    0.004321	    0.002268	    0.006589	    0.008212	   -0.000605	    0.007607	    0.032581	    0.012134	    0.044715	   -0.022046	   -0.002780	   -0.024826
     2.325	0	0	    0	    0.010573	    0.000891	    0.011464	    0.001601	   -0.000496	    0.001105	   -0.005375	    0.005869	    0.000494	    0.009963	   -0.001426	    0.008537	   -0.002787	    0.003525	    0.000738	   -0.017709	    0.017361	   -0.000348	   -0.010608	    0.063698	    0.053090	    0.031148	   -0.000124	    0.031023	    0.004410	   -0.003417	    0.000992	   -0.008367	    0.015715	    0.007349	    0.003992	   -0.000259	    0.003734	   -0.000526	    0.000973	    0.000447	   -0.002017	   -0.004130	   -0.006148	    0.032650	    0.031660	    0.064311	   -0.016426	    0.031766	    0.015340	    0.046709	    0.004759	    0.051469	    0.005696	    0.006894	    0.012590	    0.005113	   -0.000940	    0.004173	    0.003316	    0.003062	    0.006378	    0.010196	    0.002072	    0.012268	    0.060070	    0.044104	    0.104174	   -0.028720	    0.064552	    0.035832
     2.400	0	0	    0	    0.019167	   -0.006582	    0.012585	    0.003501	   -0.000388	    0.003114	    0.003527	   -0.002302	    0.001225	    0.012020	   -0.003811	    0.008209	    0.003025	   -0.002747	    0.000278	   -0.015238	    0.011785	   -0.003453	   -0.026578	    0.064702	    0.038124	    0.041376	    0.015716	    0.057092	    0.006231	   -0.006165	    0.000066	    0.008500	   -0.000256	    0.008244	    0.003951	   -0.000053	    0.003898	    0.000862	   -0.000057	    0.000804	   -0.001864	   -0.005610	   -0.007474	    0.015648	    0.037282	    0.052930	   -0.048254	    0.029369	   -0.018885	    0.039241	    0.027878	    0.067119	   -0.004595	    0.015475	    0.010880	    0.001933	    0.000320	    0.002254	    0.002716	    0.003025	    0.005741	    0.010128	    0.003885	    0.014012	    0.042350	    0.064831	    0.107181	   -0.082619	    0.039691	   -0.042928
     2.475	0	0	    0	    0.000923	    0.015634	    0.016557	    0.000327	    0.000015	    0.000342	   -0.002718	    0.004208	    0.001490	    0.006309	    0.001679	    0.007988	   -0.008059	    0.006985	   -0.001074	   -0.002705	    0.006625	    0.003920	   -0.041890	    0.060932	    0.019042	    0.020467	    0.035879	    0.056346	    0.003477	   -0.003265	    0.000213	    0.002326	    0.007831	    0.010158	    0.005263	   -0.001414	    0.003849	   -0.002388	    0.002187	   -0.000200	   -0.001804	   -0.007237	   -0.009041	    0.000165	    0.033718	    0.033883	   -0.005766	    0.013157	    0.007391	    0.023146	    0.016607	    0.039753	    0.000899	    0.005903	    0.006801	    0.000352	    0.004177	    0.004529	    0.002585	    0.002134	    0.004719	    0.005452	    0.003868	    0.009319	    0.019617	    0.047034	    0.066652	   -0.037050	   -0.022185	   -0.059236
     2.550	0	0	    0	   -0.008321	    0.024775	    0.016454	    0.006142	   -0.000178	    0.005965	    0.004956	    0.001727	    0.006683	    0.010215	   -0.000658	    0.009557	    0.000199	    0.005669	    0.005868	   -0.000618	    0.012967	    0.012349	   -0.022895	    0.066388	    0.043493	    0.018632	    0.007972	    0.026604	    0.014326	   -0.006395	    0.007930	   -0.005182	    0.015568	    0.010386	    0.008005	    0.000320	    0.008325	    0.000409	   -0.000509	   -0.000100	    0.009552	   -0.005154	    0.004398	    0.005789	    0.008798	    0.014587	    0.014768	    0.020635	    0.035403	    0.025624	   -0.004940	    0.020684	    0.008285	    0.001419	    0.009704	    0.008086	    0.003604	    0.011690	    0.006635	    0.001820	    0.008455	    0.007877	   -0.001376	    0.006502	    0.017038	    0.004535	    0.021573	    0.015364	    0.052384	    0.067747
     2.625	0	0	    0	    0.004536	    0.005113	    0.009649	    0.004113	    0.004777	    0.008891	    0.005522	    0.009868	    0.015389	    0.012728	    0.001850	    0.014578	    0.000047	    0.007490	    0.007537	   -0.001403	    0.014766	    0.013363	   -0.001198	    0.060666	    0.059469	    0.023015	    0.002399	    0.025415	    0.014862	   -0.001146	    0.013716	   -0.026722	    0.046219	    0.019497	    0.010832	   -0.000502	    0.010330	    0.002227	    0.001155	    0.003382	    0.010772	    0.000804	    0.011576	    0.004185	    0.012146	    0.016331	    0.013124	    0.042423	    0.055548	    0.023800	   -0.005661	    0.018139	    0.006125	    0.009531	    0.015656	    0.010763	    0.000617	    0.011380	    0.010100	    0.000773	    0.010873	    0.010700	   -0.001067	    0.009632	    0.016687	   -0.004088	    0.012599	    0.030307	    0.069950	    0.100257
     2.700	0	0	    0	    0.017210	   -0.005821	    0.011389	    0.007633	    0.001287	    0.008919	    0.007308	    0.005948	    0.013256	    0.014424	   -0.000076	    0.014348	    0.005430	    0.003955	    0.009384	    0.003177	    0.007415	    0.010591	   -0.007257	    0.051584	    0.044327	    0.023766	   -0.000981	    0.022785	    0.016027	   -0.000429	    0.015598	   -0.011790	    0.019819	    0.008029	    0.010877	   -0.000216	    0.010661	    0.004409	    0.000583	    0.004992	    0.007217	    0.005608	    0.012825	    0.022759	   -0.006011	    0.016748	    0.005087	    0.021484	    0.026571	    0.026127	   -0.004677	    0.021450	    0.012587	    0.001820	    0.014407	    0.012561	   -0.003884	    0.008677	    0.010732	    0.001489	    0.012221	    0.015062	   -0.002548	    0.012513	    0.033299	   -0.004855	    0.028444	   -0.027948	    0.044967	    0.017019
     2.775	0	0	    0	    0.025885	   -0.009040	    0.016845	    0.008202	    0.000366	    0.008568	    0.008712	    0.007178	    0.015889	    0.017473	    0.000489	    0.017961	    0.010667	   -0.003179	    0.007488	   -0.005637	    0.012707	    0.007070	    0.010850	    0.049164	    0.060014	    0.035872	   -0.009288	    0.026585	    0.012970	    0.000166	    0.013136	   -0.006167	    0.022966	    0.016799	    0.009825	    0.001835	    0.011660	    0.005281	    0.000102	    0.005383	    0.008461	   -0.001153	    0.007308	    0.038638	    0.027448	    0.066086	   -0.006261	    0.033120	    0.026859	    0.045820	   -0.004712	    0.041107	    0.019053	   -0.002293	    0.016760	    0.008841	    0.002778	    0.011619	    0.011146	    0.001553	    0.012698	    0.019122	    0.001087	    0.020209	    0.066635	    0.019060	    0.085694	    0.024149	    0.037188	    0.061337
     2.850	0	0	    0	    0.022868	   -0.002638	    0.020230	    0.012693	   -0.000718	    0.011975	    0.015331	    0.001960	    0.017292	    0.019629	    0.000427	    0.020056	    0.010297	   -0.005487	    0.004810	   -0.009834	    0.013856	    0.004022	    0.014771	    0.061020	    0.075791	    0.050831	    0.008185	    0.059016	    0.016880	   -0.004876	    0.012004	   -0.004698	    0.019426	    0.014728	    0.012421	    0.000584	    0.013005	    0.007010	   -0.000296	    0.006714	    0.009137	   -0.004838	    0.004299	    0.046293	    0.040920	    0.087214	   -0.007064	    0.028880	    0.021817	    0.061931	    0.022910	    0.084841	    0.018972	    0.002362	    0.021334	    0.017400	   -0.006356	    0.011044	    0.012187	    0.001563	    0.013750	    0.023151	    0.003490	    0.026641	    0.086853	    0.064402	    0.151255	    0.002199	    0.079318	    0.081517
     2.925	0	0	    0	    0.032709	   -0.005431	    0.027279	    0.009867	    0.003207	    0.013074	    0.011163	    0.004558	    0.015721	    0.020153	   -0.000905	    0.019248	    0.012323	   -0.007497	    0.004826	   -0.020711	    0.023403	    0.002692	   -0.029647	    0.065010	    0.035363	    0.055981	    0.020055	    0.076036	    0.015510	   -0.003527	    0.011984	    0.000401	    0.018123	    0.018525	    0.012191	    0.000344	    0.012536	    0.008246	    0.000347	    0.008593	    0.010249	   -0.005906	    0.004343	    0.012976	    0.049748	    0.062724	   -0.036245	    0.005719	   -0.030527	    0.047795	    0.029467	    0.077263	    0.012250	    0.002230	    0.014480	    0.008713	    0.000080	    0.008793	    0.011029	    0.002309	    0.013338	    0.022619	    0.006299	    0.028918	    0.055034	    0.072645	    0.127679	   -0.052955	    0.023618	   -0.029337
     3.000	0	0	    0	    0.024318	    0.000772	    0.025091	    0.009181	   -0.001747	    0.007434	    0.013313	   -0.004070	    0.009244	    0.018836	   -0.001461	    0.017375	    0.012830	   -0.006472	    0.006357	    0.008260	    0.001917	    0.010177	   -0.023515	    0.033555	    0.010041	    0.036451	    0.021928	    0.058379	    0.014066	   -0.003938	    0.010127	    0.005744	    0.008978	    0.014722	    0.011449	    0.000186	    0.011635	    0.006392	    0.000370	    0.006762	    0.010816	   -0.004645	    0.006171	    0.014732	    0.030598	    0.045330	   -0.021046	    0.029049	    0.008003	    0.027998	    0.012138	    0.040136	    0.001202	    0.016620	    0.017822	    0.011658	   -0.001634	    0.010024	    0.010402	    0.000252	    0.010653	    0.019027	    0.001073	    0.020101	    0.032738	    0.039266	    0.072005	   -0.030207	   -0.022380	   -0.052587
     3.075	0	0	    0	    0.029372	   -0.014267	    0.015105	    0.008623	   -0.003477	    0.005146	    0.009990	   -0.001619	    0.008371	    0.018000	   -0.002393	    0.015607	    0.014766	   -0.006721	    0.008044	    0.001772	    0.009990	    0.011762	   -0.012134	    0.028725	    0.016591	    0.031713	   -0.007510	    0.024203	    0.012968	   -0.003798	    0.009170	   -0.009298	    0.022169	    0.012872	    0.010096	    0.000314	    0.010410	    0.006875	   -0.000241	    0.006634	    0.011960	   -0.004407	    0.007553	    0.006541	    0.025268	    0.031809	    0.006186	    0.021884	    0.028071	    0.024461	   -0.005840	    0.018620	    0.010733	    0.000589	    0.011322	    0.007081	    0.000190	    0.007271	    0.009975	   -0.000314	    0.009661	    0.013142	   -0.000543	    0.012599	    0.021524	    0.011637	    0.033160	    0.000344	    0.013679	    0.014023
     3.150	0	0	    0	    0.022772	   -0.011132	    0.011640	    0.003740	    0.000838	    0.004578	    0.008074	    0.003298	    0.011372	    0.019394	   -0.003715	    0.015679	    0.010706	   -0.002175	    0.008531	    0.003927	    0.000761	    0.004688	    0.006949	    0.029209	    0.036158	    0.027274	   -0.009875	    0.017399	    0.010645	   -0.001251	    0.009394	   -0.006684	    0.025974	    0.019291	    0.008469	    0.000955	    0.009424	    0.004954	    0.000933	    0.005887	    0.009891	    0.000133	    0.010024	   -0.001173	    0.006995	    0.005822	    0.010324	    0.023034	    0.033358	    0.015766	   -0.008408	    0.007359	    0.004840	    0.007524	    0.012365	    0.007583	    0.001065	    0.008648	    0.009793	   -0.000821	    0.008972	    0.010432	   -0.003260	    0.007172	    0.008103	   -0.001481	    0.006622	    0.018456	    0.070254	    0.088710
     3.225	0	0	    0	    0.005666	    0.007116	    0.012782	    0.006953	   -0.003625	    0.003328	    0.006266	    0.001758	    0.008024	    0.016776	   -0.003270	    0.013506	    0.002583	    0.007028	    0.009611	    0.013937	   -0.012521	    0.001415	    0.027357	    0.011748	    0.039105	    0.016081	   -0.001172	    0.014909	    0.010896	   -0.001519	    0.009377	    0.007876	   -0.003879	    0.003997	    0.009056	   -0.000072	    0.008984	    0.002750	    0.002358	    0.005108	    0.005868	    0.003273	    0.009141	   -0.000733	    0.002282	    0.001550	    0.001316	    0.053912	    0.055228	    0.012373	   -0.009075	    0.003299	   -0.001093	    0.009318	    0.008224	    0.012997	   -0.004874	    0.008123	    0.009740	   -0.000812	    0.008928	    0.009087	   -0.004170	    0.004917	    0.004451	   -0.009787	   -0.005336	    0.013060	    0.075933	    0.088993
     3.300	0	0	    0	    0.014058	   -0.008615	    0.005443	    0.006908	   -0.006849	    0.000059	    0.014921	   -0.009850	    0.005071	    0.011578	    0.000018	    0.011596	    0.004281	    0.001612	    0.005893	    0.014576	   -0.013315	    0.001261	    0.001798	    0.032395	    0.034193	    0.013598	   -0.005192	    0.008406	    0.011277	   -0.005525	    0.005752	    0.012219	   -0.011601	    0.000618	    0.008903	    0.000250	    0.009152	    0.003048	   -0.000215	    0.002833	    0.005387	    0.000158	    0.005545	    0.005010	   -0.005763	   -0.000754	   -0.005402	    0.024991	    0.019589	    0.016990	   -0.014495	    0.002495	    0.002600	    0.004650	    0.007250	    0.005223	    0.000100	    0.005323	    0.009615	    0.000021	    0.009636	    0.009156	   -0.005580	    0.003576	    0.017493	   -0.011672	    0.005821	   -0.049592	    0.033768	   -0.015823
     3.375	0	0	    0	    0.018078	   -0.009459	    0.008619	    0.007395	   -0.006567	    0.000828	    0.011324	   -0.001171	    0.010153	    0.016210	   -0.003433	    0.012778	    0.002135	    0.001061	    0.003196	   -0.004640	    0.007401	    0.002761	    0.016974	    0.019972	    0.036946	    0.024718	   -0.016626	    0.008092	    0.009205	   -0.006743	    0.002462	    0.011806	   -0.004253	    0.007553	    0.009410	    0.001199	    0.010609	    0.001163	   -0.000316	    0.000847	   -0.001430	   -0.002407	   -0.003837	    0.020840	    0.020563	    0.041403	   -0.014245	    0.023937	    0.009692	    0.031925	   -0.011102	    0.020823	    0.009078	   -0.000454	    0.008623	    0.007752	    0.001278	    0.009030	    0.009185	    0.000498	    0.009683	    0.012423	   -0.004318	    0.008104	    0.040362	    0.008779	    0.049142	   -0.004025	    0.011520	    0.007495
     3.450	0	0	    0	    0.020087	   -0.001719	    0.018368	    0.011370	   -0.000224	    0.011145	    0.012003	    0.002655	    0.014657	    0.019038	   -0.004590	    0.014448	    0.002658	   -0.001233	    0.001425	   -0.012836	    0.012798	   -0.000038	    0.011462	    0.060630	    0.072091	    0.043449	    0.002658	    0.046106	    0.014990	   -0.005334	    0.009656	   -0.000803	    0.022141	    0.021338	    0.013466	    0.001009	    0.014475	    0.005863	   -0.002926	    0.002937	    0.011123	   -0.012838	   -0.001715	    0.040109	    0.034793	    0.074902	   -0.018003	    0.030106	    0.012103	    0.057368	    0.016745	    0.074113	    0.011636	    0.008430	    0.020066	    0.015002	    0.000598	    0.015600	    0.013779	    0.000336	    0.014115	    0.024374	   -0.001998	    0.022376	    0.082190	    0.051797	    0.133987	   -0.019703	    0.074180	    0.054477
     3.525	0	0	    0	    0.026832	    0.001130	    0.027961	    0.012106	    0.004002	    0.016109	    0.010571	    0.013020	    0.023591	    0.023142	   -0.001786	    0.021357	    0.003018	    0.002103	    0.005121	   -0.012052	    0.013413	    0.001361	   -0.032814	    0.083422	    0.050608	    0.048751	    0.018793	    0.067543	    0.020984	   -0.007433	    0.013551	    0.017554	    0.001262	    0.018816	    0.013852	    0.002447	    0.016299	    0.008133	   -0.000244	    0.007889	    0.017201	   -0.012226	    0.004975	    0.006181	    0.058182	    0.064363	   -0.037084	    0.018619	   -0.018465	    0.056427	    0.020287	    0.076714	    0.021675	   -0.004224	    0.017452	    0.011847	    0.002123	    0.013970	    0.014126	    0.001361	    0.015487	    0.030175	    0.000170	    0.030345	    0.063042	    0.066718	    0.129760	   -0.043900	    0.023932	   -0.019969
     3.600	0	0	    0	    0.022005	    0.008990	    0.030996	    0.015582	   -0.000501	    0.015081	    0.021535	    0.000681	    0.022215	    0.021321	    0.000741	    0.022063	    0.006463	    0.003191	    0.009654	    0.017494	    0.003719	    0.021213	    0.006851	    0.013540	    0.020391	    0.031210	    0.031937	    0.063147	    0.023039	   -0.007298	    0.015741	    0.016883	   -0.003887	    0.012996	    0.015288	    0.001684	    0.016972	    0.009348	   -0.000299	    0.009049	    0.023140	   -0.011220	    0.011920	    0.010998	    0.032199	    0.043196	    0.006098	    0.017193	    0.023291	    0.039721	    0.010345	    0.050066	    0.024505	   -0.010529	    0.013977	    0.016864	   -0.008029	    0.008834	    0.015080	   -0.001562	    0.013518	    0.025039	    0.000847	    0.025886	    0.033330	    0.044607	    0.077937	   -0.013024	   -0.021914	   -0.034938
     3.675	0	0	    0	    0.022386	   -0.003765	    0.018620	    0.011484	    0.001860	    0.013345	    0.016048	    0.003603	    0.019651	    0.026175	   -0.004053	    0.022122	    0.016333	   -0.002689	    0.013644	    0.005427	    0.010391	    0.015818	    0.008502	    0.041868	    0.050370	    0.034337	   -0.008079	    0.026258	    0.021705	   -0.004445	    0.017259	    0.006629	    0.017676	    0.024305	    0.015241	    0.000373	    0.015614	    0.009735	   -0.000877	    0.008858	    0.019061	   -0.001610	    0.017450	    0.010210	    0.005721	    0.015931	    0.025906	    0.012616	    0.038522	    0.030094	   -0.004997	    0.025097	    0.014185	    0.004733	    0.018918	    0.017091	   -0.003250	    0.013841	    0.015076	   -0.002196	    0.012880	    0.020019	   -0.004817	    0.015202	    0.022422	    0.003179	    0.025601	    0.036825	    0.035393	    0.072218
     3.750	0	0	    0	    0.019670	   -0.008071	    0.011599	    0.010441	    0.000898	    0.011338	    0.011739	    0.005964	    0.017703	    0.019629	    0.000427	    0.020056	    0.011846	   -0.001383	    0.010463	    0.013946	   -0.004335	    0.009611	    0.003115	    0.040143	    0.043258	    0.025554	   -0.004965	    0.020589	    0.018588	   -0.003296	    0.015292	   -0.007025	    0.021985	    0.014959	    0.013120	    0.001907	    0.015027	    0.010645	   -0.001303	    0.009342	    0.019388	   -0.003888	    0.015500	    0.002724	    0.005005	    0.007729	    0.010973	    0.044750	    0.055724	    0.023878	   -0.009320	    0.014558	    0.018181	   -0.001651	    0.016530	    0.017535	   -0.005326	    0.012210	    0.014416	   -0.001680	    0.012736	    0.018072	   -0.005237	    0.012835	    0.015479	   -0.005702	    0.009777	    0.024962	    0.074006	    0.098968
     3.825	0	0	    0	    0.012542	   -0.004167	    0.008375	    0.006656	   -0.000384	    0.006272	    0.002250	    0.008035	    0.010284	    0.021082	   -0.003414	    0.017668	    0.010466	    0.001424	    0.011890	   -0.003205	    0.014546	    0.011341	   -0.002501	    0.042395	    0.039894	    0.022586	   -0.001907	    0.020678	    0.017268	   -0.002749	    0.014518	    0.005399	   -0.005526	   -0.000127	    0.013354	    0.001124	    0.014478	    0.009970	   -0.000968	    0.009001	    0.015084	    0.003383	    0.018467	   -0.006102	    0.009390	    0.003288	    0.008364	    0.047881	    0.056245	    0.023401	   -0.010128	    0.013273	    0.013859	    0.002026	    0.015886	    0.012918	   -0.001585	    0.011333	    0.015172	   -0.002229	    0.012943	    0.019338	   -0.007086	    0.012252	    0.017416	   -0.012241	    0.005175	    0.000848	    0.074983	    0.075831
     3.900	0	0	    0	    0.029720	   -0.019929	    0.009791	    0.012500	   -0.004995	    0.007505	    0.013086	    0.001722	    0.014808	    0.023816	   -0.003754	    0.020062	    0.015117	   -0.001115	    0.014002	    0.001393	    0.014589	    0.015982	    0.010956	    0.030598	    0.041554	    0.024194	   -0.005962	    0.018232	    0.019949	   -0.006672	    0.013277	   -0.004956	    0.018968	    0.014012	    0.014289	    0.001693	    0.015982	    0.008818	   -0.001427	    0.007391	    0.016831	   -0.001793	    0.015038	    0.015021	   -0.002633	    0.012388	    0.008791	    0.024164	    0.032955	    0.027690	   -0.012172	    0.015518	    0.019565	   -0.002996	    0.016569	    0.012985	    0.000298	    0.013283	    0.015847	   -0.001804	    0.014043	    0.020297	   -0.007356	    0.012942	    0.032075	   -0.006963	    0.025112	   -0.021814	    0.005148	   -0.016666
     3.975	0	0	    0	    0.018767	   -0.001781	    0.016986	    0.011593	   -0.003851	    0.007743	    0.012669	    0.003954	    0.016623	    0.022767	   -0.001982	    0.020785	    0.005984	    0.002136	    0.008119	   -0.012500	    0.017995	    0.005495	   -0.020788	    0.078481	    0.057693	    0.031315	   -0.009868	    0.021447	    0.016322	   -0.004210	    0.012112	   -0.005261	    0.023928	    0.018668	    0.013442	    0.002887	    0.016329	    0.008556	   -0.003079	    0.005477	    0.006755	   -0.001992	    0.004763	    0.015406	    0.033955	    0.049361	    0.006528	    0.019377	    0.025905	    0.043452	   -0.005670	    0.037782	    0.013542	    0.006538	    0.020080	    0.014533	   -0.000043	    0.014490	    0.014665	   -0.000579	    0.014086	    0.023287	   -0.005306	    0.017981	    0.063570	    0.017457	    0.081027	    0.001423	    0.020600	    0.022023
     4.050	0	0	    0	    0.017587	    0.004953	    0.022540	    0.010105	   -0.001537	    0.008568	    0.014048	    0.002263	    0.016310	    0.024397	   -0.003596	    0.020801	    0.009880	   -0.005470	    0.004410	   -0.008284	    0.010313	    0.002029	    0.000014	    0.063144	    0.063158	    0.048760	    0.001146	    0.049906	    0.012742	   -0.002794	    0.009947	   -0.004437	    0.014536	    0.010099	    0.013159	    0.002762	    0.015922	    0.009047	   -0.002988	    0.006059	    0.005697	   -0.002584	    0.003114	    0.032996	    0.042066	    0.075062	   -0.007415	    0.043468	    0.036053	    0.051641	    0.022231	    0.073872	    0.012646	    0.006693	    0.019339	    0.008769	    0.004700	    0.013469	    0.014929	   -0.000835	    0.014094	    0.023973	   -0.002454	    0.021519	    0.067496	    0.058855	    0.126350	   -0.039178	    0.068592	    0.029413
     4.125	0	0	    0	    0.033384	   -0.007158	    0.026226	    0.009594	   -0.000246	    0.009348	    0.014017	    0.003129	    0.017147	    0.022592	   -0.003321	    0.019271	    0.011929	   -0.006984	    0.004945	   -0.015813	    0.018908	    0.003095	   -0.020514	    0.072977	    0.052463	    0.044631	    0.020972	    0.065603	    0.013647	   -0.006103	    0.007544	   -0.012381	    0.031817	    0.019436	    0.012054	    0.002331	    0.014385	    0.007769	   -0.001787	    0.005983	    0.007019	   -0.005348	    0.001671	    0.016019	    0.038187	    0.054206	   -0.017356	    0.021478	    0.004123	    0.040334	    0.025099	    0.065433	    0.005652	    0.011541	    0.017193	    0.006617	    0.003925	    0.010542	    0.012595	   -0.000890	    0.011705	    0.024154	   -0.002591	    0.021562	    0.042990	    0.061696	    0.104686	   -0.080049	    0.016359	   -0.063690
     4.200	0	0	    0	    0.017219	    0.004521	    0.021739	    0.007818	   -0.004026	    0.003792	    0.016925	   -0.003487	    0.013438	    0.022083	   -0.003123	    0.018959	    0.008753	   -0.006251	    0.002502	    0.002543	    0.008210	    0.010753	   -0.019338	    0.053572	    0.034234	    0.018161	    0.027448	    0.045610	    0.013413	   -0.006685	    0.006728	   -0.008080	    0.018191	    0.010111	    0.011744	    0.000989	    0.012732	    0.006491	   -0.002055	    0.004436	    0.012626	   -0.010351	    0.002276	   -0.005991	    0.035437	    0.029446	    0.012345	    0.026611	    0.038956	    0.024892	    0.007326	    0.032218	    0.011116	    0.000950	    0.012065	    0.012775	   -0.004253	    0.008522	    0.011495	   -0.003027	    0.008468	    0.014339	   -0.002054	    0.012285	    0.008037	    0.035182	    0.043219	   -0.007027	   -0.013098	   -0.020126
     4.275	0	0	    0	    0.023896	   -0.017664	    0.006232	    0.005826	   -0.004190	    0.001636	    0.014004	   -0.001542	    0.012462	    0.019343	   -0.001658	    0.017685	    0.008151	   -0.001691	    0.006460	    0.007685	    0.000157	    0.007843	   -0.008192	    0.034854	    0.026662	    0.023055	   -0.009437	    0.013618	    0.012214	   -0.006259	    0.005955	    0.008540	    0.001189	    0.009729	    0.011030	    0.001039	    0.012069	    0.004224	   -0.002421	    0.001803	    0.005226	   -0.000605	    0.004621	   -0.003113	   -0.000305	   -0.003417	    0.003969	    0.024306	    0.028275	    0.017267	   -0.007276	    0.009990	    0.012074	   -0.007305	    0.004769	    0.010955	   -0.004339	    0.006617	    0.010903	   -0.003527	    0.007377	    0.011364	   -0.007737	    0.003627	    0.006961	   -0.004717	    0.002243	   -0.017828	    0.035848	    0.018019
     4.350	0	0	    0	    0.012999	   -0.003048	    0.009950	    0.007980	   -0.001359	    0.006620	    0.010211	    0.007872	    0.018082	    0.020619	   -0.005265	    0.015354	    0.004944	   -0.001970	    0.002974	   -0.003017	    0.015956	    0.012939	   -0.006767	    0.033196	    0.026429	    0.021513	   -0.005751	    0.015762	    0.018180	   -0.007432	    0.010748	   -0.012803	    0.016062	    0.003259	    0.015253	    0.000949	    0.016203	    0.003963	   -0.003848	    0.000115	    0.008675	   -0.002866	    0.005809	   -0.005488	    0.007348	    0.001860	    0.020684	    0.018569	    0.039253	    0.026678	   -0.010179	    0.016499	    0.012886	   -0.002618	    0.010268	    0.016899	   -0.007234	    0.009665	    0.014938	   -0.003229	    0.011708	    0.014451	   -0.008642	    0.005809	    0.018810	   -0.007608	    0.011202	    0.001435	    0.032506	    0.033941
     4.425	0	0	    0	    0.017859	   -0.002332	    0.015527	    0.012021	    0.001398	    0.013420	    0.017262	    0.005130	    0.022393	    0.024012	   -0.002659	    0.021353	    0.002627	    0.002613	    0.005240	    0.005427	    0.010391	    0.015818	   -0.003071	    0.056181	    0.053110	    0.026903	   -0.001426	    0.025476	    0.018454	   -0.001452	    0.017002	   -0.006332	    0.030012	    0.023680	    0.018556	    0.000700	    0.019256	    0.006013	   -0.003541	    0.002472	    0.012079	    0.001156	    0.013234	    0.005801	   -0.000247	    0.005554	    0.036405	    0.012021	    0.048427	    0.027054	    0.000393	    0.027447	    0.012646	    0.006693	    0.019339	    0.024182	   -0.006900	    0.017282	    0.017089	   -0.002549	    0.014540	    0.018037	   -0.007100	    0.010937	    0.023072	   -0.006332	    0.016740	    0.027756	    0.019195	    0.046951
     4.500	0	0	    0	    0.016397	   -0.003069	    0.013328	    0.011885	    0.000906	    0.012791	    0.017151	    0.001803	    0.018954	    0.023575	   -0.000090	    0.023485	    0.008368	   -0.001925	    0.006443	   -0.004178	    0.014936	    0.010758	   -0.015487	    0.063418	    0.047931	    0.028626	   -0.005012	    0.023614	    0.024805	   -0.006345	    0.018460	    0.000367	    0.009876	    0.010243	    0.018021	    0.001678	    0.019700	    0.008982	   -0.004153	    0.004830	    0.015718	   -0.001693	    0.014025	    0.001995	   -0.001116	    0.000879	    0.030439	    0.044350	    0.074789	    0.033214	   -0.007097	    0.026116	    0.021708	   -0.008792	    0.012916	    0.012586	   -0.000359	    0.012227	    0.017107	   -0.002178	    0.014929	    0.019242	   -0.007415	    0.011827	    0.023565	   -0.009224	    0.014341	    0.043322	    0.059905	    0.103227
     4.575	0	0	    0	    0.014844	   -0.008765	    0.006078	    0.014092	   -0.003192	    0.010900	    0.021377	   -0.001744	    0.019633	    0.022922	   -0.001507	    0.021415	    0.005461	   -0.004256	    0.001205	    0.011246	   -0.007541	    0.003705	    0.048449	   -0.003011	    0.045439	    0.025346	   -0.003663	    0.021683	    0.021960	   -0.004035	    0.017924	    0.014359	   -0.002605	    0.011755	    0.017012	    0.001136	    0.018147	    0.007438	   -0.002710	    0.004728	    0.015914	   -0.001767	    0.014146	    0.002762	    0.003934	    0.006695	    0.021375	    0.068947	    0.090322	    0.029920	   -0.011898	    0.018022	    0.014389	    0.001798	    0.016187	    0.017139	   -0.004084	    0.013055	    0.016688	   -0.002808	    0.013880	    0.018823	   -0.009239	    0.009585	    0.018044	   -0.012337	    0.005707	    0.051759	    0.073599	    0.125358
     4.650	0	0	    0	    0.015054	   -0.011551	    0.003503	    0.013819	   -0.004167	    0.009652	    0.015796	    0.002632	    0.018428	    0.024445	   -0.004104	    0.020341	    0.005425	   -0.001444	    0.003982	    0.008839	   -0.009406	   -0.000568	   -0.004346	    0.043135	    0.038788	    0.028853	   -0.010189	    0.018664	    0.022789	   -0.006520	    0.016269	    0.011499	   -0.016497	   -0.004997	    0.016355	    0.001689	    0.018045	    0.008100	   -0.002828	    0.005272	    0.017487	   -0.004013	    0.013474	   -0.009824	    0.008972	   -0.000852	    0.008003	    0.046013	    0.054016	    0.027569	   -0.013498	    0.014071	    0.018614	   -0.011168	    0.007446	    0.015377	   -0.006630	    0.008748	    0.017775	   -0.002747	    0.015028	    0.019987	   -0.009950	    0.010037	    0.020474	   -0.016820	    0.003654	    0.007348	    0.067095	    0.074442
     4.725	0	0	    0	    0.016477	   -0.012515	    0.003962	    0.011137	   -0.001951	    0.009187	    0.017846	    0.004392	    0.022237	    0.026178	   -0.004503	    0.021675	    0.012152	   -0.013271	   -0.001120	   -0.003061	    0.006237	    0.003175	   -0.002582	    0.021682	    0.019100	    0.019730	   -0.006265	    0.013465	    0.022351	   -0.007427	    0.014925	   -0.002999	    0.015425	    0.012426	    0.016050	    0.002449	    0.018499	    0.009158	   -0.005617	    0.003540	    0.015132	   -0.005271	    0.009861	    0.021047	   -0.003487	    0.017560	   -0.005007	    0.028489	    0.023482	    0.036077	   -0.013095	    0.022982	    0.024781	   -0.004548	    0.020233	    0.013732	    0.000548	    0.014279	    0.016789	   -0.001636	    0.015153	    0.024672	   -0.010077	    0.014595	    0.048651	   -0.009739	    0.038912	   -0.005042	   -0.000147	   -0.005189
     4.800	0	0	    0	    0.023407	   -0.009372	    0.014035	    0.011580	   -0.000948	    0.010632	    0.014941	    0.008007	    0.022948	    0.024414	   -0.000027	    0.024387	    0.006201	   -0.006261	   -0.000060	   -0.015951	    0.015094	   -0.000857	   -0.004798	    0.060053	    0.055255	    0.041454	   -0.009643	    0.031811	    0.021381	   -0.009538	    0.011843	    0.014677	   -0.000778	    0.013899	    0.017750	    0.001079	    0.018829	    0.010262	   -0.005563	    0.004700	    0.015657	   -0.012294	    0.003364	    0.028224	    0.035113	    0.063337	    0.005674	    0.015020	    0.020694	    0.061909	   -0.002898	    0.059011	    0.027958	   -0.009012	    0.018947	    0.015900	   -0.002496	    0.013404	    0.017600	   -0.002311	    0.015290	    0.029362	   -0.008177	    0.021185	    0.082036	    0.032525	    0.114562	    0.030157	    0.047006	    0.077163
     4.875	0	0	    0	    0.031950	   -0.014993	    0.016957	    0.016890	   -0.005517	    0.011373	    0.023788	   -0.004717	    0.019071	    0.027324	   -0.004608	    0.022716	    0.008208	   -0.008253	   -0.000045	   -0.006190	    0.003702	   -0.002488	   -0.000315	    0.049653	    0.049339	    0.045564	    0.015261	    0.060825	    0.020708	   -0.009589	    0.011119	    0.010592	    0.002825	    0.013417	    0.016350	    0.001677	    0.018027	    0.011120	   -0.005276	    0.005844	    0.014039	   -0.012010	    0.002029	    0.033079	    0.036537	    0.069615	   -0.032469	    0.022887	   -0.009582	    0.054504	    0.025040	    0.079545	    0.030237	   -0.012802	    0.017435	    0.012974	   -0.002421	    0.010554	    0.016200	   -0.001471	    0.014729	    0.030719	   -0.006023	    0.024696	    0.069474	    0.069636	    0.139110	   -0.035910	    0.049964	    0.014053
     4.950	0	0	    0	    0.019403	    0.008853	    0.028257	    0.011763	    0.000163	    0.011926	    0.009353	    0.009801	    0.019154	    0.024836	   -0.001909	    0.022927	    0.010743	   -0.008740	    0.002002	   -0.008187	    0.016677	    0.008490	   -0.044331	    0.048951	    0.004620	    0.045600	    0.020171	    0.065771	    0.019252	   -0.009230	    0.010022	   -0.011182	    0.038445	    0.027263	    0.015425	    0.001281	    0.016706	    0.010187	   -0.003369	    0.006818	    0.013260	   -0.009299	    0.003961	    0.005913	    0.026660	    0.032573	   -0.019663	   -0.002072	   -0.021735	    0.040228	    0.017524	    0.057752	    0.016592	    0.002137	    0.018729	    0.010529	    0.000177	    0.010706	    0.013810	   -0.001562	    0.012247	    0.025450	   -0.003105	    0.022346	    0.040217	    0.049061	    0.089278	   -0.046916	   -0.007833	   -0.054749
     5.025	0	0	    0	    0.023902	   -0.010854	    0.013048	    0.007289	    0.000148	    0.007436	    0.014521	    0.006365	    0.020887	    0.021703	    0.001384	    0.023087	    0.010271	   -0.005981	    0.004291	    0.001708	    0.007620	    0.009328	   -0.010486	    0.043926	    0.033440	    0.026051	   -0.002098	    0.023953	    0.017257	   -0.007467	    0.009790	   -0.014287	    0.026342	    0.012055	    0.014073	    0.001624	    0.015697	    0.008896	   -0.004048	    0.004848	    0.015655	   -0.006781	    0.008874	    0.000169	    0.009550	    0.009719	    0.015651	    0.015619	    0.031269	    0.018866	   -0.000418	    0.018448	    0.014834	   -0.005984	    0.008850	    0.011877	   -0.003076	    0.008801	    0.013559	   -0.003855	    0.009704	    0.017681	   -0.007856	    0.009825	    0.012075	    0.007307	    0.019382	    0.019895	    0.011089	    0.030983
     5.100	0	0	    0	    0.011268	   -0.002545	    0.008723	    0.002496	    0.001927	    0.004423	    0.005499	    0.006508	    0.012007	    0.019275	   -0.000461	    0.018814	    0.010929	   -0.002411	    0.008518	   -0.005408	    0.009160	    0.003752	   -0.020754	    0.055232	    0.034478	    0.016584	   -0.004234	    0.012349	    0.017761	   -0.009428	    0.008333	   -0.016828	    0.022554	    0.005726	    0.012050	    0.000250	    0.012300	    0.007381	   -0.003592	    0.003788	    0.012479	   -0.001317	    0.011162	   -0.014022	    0.011372	   -0.002650	    0.008108	    0.054155	    0.062262	    0.018686	   -0.014234	    0.004452	    0.013101	   -0.001967	    0.011134	    0.017967	   -0.006314	    0.011652	    0.012599	   -0.003857	    0.008743	    0.015883	   -0.010013	    0.005870	    0.006728	   -0.008787	   -0.002059	    0.022884	    0.064738	    0.087622
     5.175	0	0	    0	    0.001898	   -0.008191	   -0.006294	    0.001289	   -0.000714	    0.000576	    0.006734	    0.005396	    0.012129	    0.018389	   -0.002883	    0.015506	    0.000630	    0.000266	    0.000896	   -0.005691	    0.003879	   -0.001813	   -0.024406	    0.056696	    0.032290	    0.013144	   -0.007997	    0.005147	    0.011682	   -0.005449	    0.006233	   -0.013278	    0.017533	    0.004255	    0.009374	    0.001394	    0.010768	    0.005542	   -0.003148	    0.002394	    0.004746	    0.002868	    0.007614	   -0.023330	    0.017882	   -0.005448	   -0.026504	    0.087169	    0.060665	    0.011508	   -0.013276	   -0.001767	    0.005169	    0.007621	    0.012790	    0.009906	    0.000973	    0.010880	    0.011820	   -0.003663	    0.008157	    0.013693	   -0.010071	    0.003622	    0.002776	   -0.013897	   -0.011121	    0.015570	    0.060372	    0.075942
     5.250	0	0	    0	    0.007623	   -0.001304	    0.006319	    0.012804	   -0.007121	    0.005683	    0.025609	   -0.007001	    0.018608	    0.021041	   -0.005135	    0.015906	    0.005304	    0.000856	    0.006160	    0.015457	   -0.004587	    0.010870	    0.007548	    0.034986	    0.042534	    0.016517	   -0.007210	    0.009307	    0.017909	   -0.009161	    0.008747	   -0.006416	    0.019553	    0.013137	    0.014037	    0.000273	    0.014311	    0.005147	   -0.004105	    0.001042	    0.012208	   -0.004673	    0.007535	    0.011893	   -0.016148	   -0.004255	    0.007838	    0.016086	    0.023924	    0.022693	   -0.017458	    0.005235	    0.019870	   -0.006469	    0.013401	    0.014352	   -0.002152	    0.012200	    0.015640	   -0.003655	    0.011985	    0.021516	   -0.012337	    0.009179	    0.028072	   -0.011065	    0.017007	   -0.032936	    0.031408	   -0.001528
     5.325	0	0	    0	    0.007988	    0.002459	    0.010447	    0.013875	   -0.000890	    0.012985	    0.024278	    0.001161	    0.025438	    0.022592	   -0.003321	    0.019271	    0.002241	    0.003639	    0.005879	   -0.006855	    0.019115	    0.012260	   -0.005968	    0.046849	    0.040881	    0.026199	   -0.010284	    0.015915	    0.020994	   -0.006426	    0.014568	    0.011413	   -0.001424	    0.009990	    0.015949	    0.002211	    0.018160	    0.009586	   -0.005018	    0.004568	    0.012831	   -0.002105	    0.010725	    0.026104	    0.017631	    0.043735	   -0.005960	    0.021382	    0.015422	    0.045213	   -0.010296	    0.034917	    0.028289	   -0.011695	    0.016595	    0.016734	   -0.004735	    0.011999	    0.017237	   -0.001448	    0.015789	    0.030232	   -0.007441	    0.022791	    0.064961	    0.013859	    0.078820	    0.019405	    0.000706	    0.020111
     5.400	0	0	    0	    0.022242	   -0.004443	    0.017798	    0.018828	   -0.001617	    0.017212	    0.028589	    0.001948	    0.030537	    0.028381	   -0.004144	    0.024237	    0.008526	   -0.002706	    0.005819	   -0.009605	    0.019265	    0.009660	    0.008606	    0.062057	    0.070663	    0.048586	    0.000971	    0.049557	    0.024654	   -0.007723	    0.016931	    0.001887	    0.017527	    0.019415	    0.017600	    0.002515	    0.020115	    0.012588	   -0.005229	    0.007359	    0.018293	   -0.005298	    0.012995	    0.039853	    0.037832	    0.077685	   -0.005214	    0.029510	    0.024296	    0.064779	    0.017449	    0.082228	    0.025407	    0.001601	    0.027008	    0.017749	   -0.002414	    0.015335	    0.018487	   -0.001234	    0.017253	    0.035757	   -0.004396	    0.031361	    0.081023	    0.054230	    0.135253	    0.000799	    0.040633	    0.041432
     5.475	0	0	    0	    0.027354	   -0.007438	    0.019916	    0.016755	   -0.000176	    0.016579	    0.021108	    0.003804	    0.024912	    0.028552	   -0.004361	    0.024192	    0.009927	   -0.004479	    0.005448	   -0.009331	    0.015659	    0.006327	   -0.032087	    0.069266	    0.037179	    0.047436	    0.016621	    0.064057	    0.025453	   -0.008142	    0.017312	    0.023441	    0.008448	    0.031889	    0.018423	    0.000630	    0.019053	    0.013168	   -0.004269	    0.008899	    0.018999	   -0.006059	    0.012939	    0.022664	    0.035066	    0.057730	   -0.019052	    0.009740	   -0.009312	    0.053403	    0.024550	    0.077953	    0.017775	    0.011247	    0.029022	    0.021689	   -0.003713	    0.017976	    0.017215	   -0.000807	    0.016408	    0.036467	   -0.003628	    0.032840	    0.062121	    0.061202	    0.123323	   -0.033178	   -0.000526	   -0.033705
     5.550	0	0	    0	    0.030924	   -0.011000	    0.019924	    0.011732	    0.002008	    0.013739	    0.018612	    0.005165	    0.023777	    0.026458	   -0.003288	    0.023170	    0.010904	   -0.006227	    0.004677	   -0.000836	    0.019027	    0.018192	   -0.044054	    0.063796	    0.019742	    0.032026	    0.016104	    0.048129	    0.024215	   -0.008629	    0.015586	   -0.000803	    0.022141	    0.021338	    0.015984	    0.002434	    0.018419	    0.011844	   -0.003040	    0.008805	    0.025777	   -0.010249	    0.015527	    0.001486	    0.030112	    0.031598	    0.013351	    0.026554	    0.039906	    0.037624	    0.007766	    0.045390	    0.025902	   -0.004553	    0.021348	    0.019014	   -0.003192	    0.015821	    0.017404	   -0.003335	    0.014068	    0.029652	   -0.003424	    0.026228	    0.029393	    0.040971	    0.070364	    0.001703	   -0.029794	   -0.028091
     5.625	0	0	    0	    0.011446	    0.001473	    0.012919	    0.011097	    0.002564	    0.013660	    0.017077	    0.005781	    0.022857	    0.026251	   -0.003699	    0.022552	    0.011656	   -0.000648	    0.011008	    0.002817	    0.011984	    0.014801	   -0.000149	    0.047608	    0.047458	    0.025770	   -0.000369	    0.025401	    0.026403	   -0.008117	    0.018285	    0.000885	    0.015156	    0.016041	    0.015904	    0.001314	    0.017218	    0.011066	   -0.003089	    0.007977	    0.022148	   -0.001920	    0.020228	   -0.001575	    0.018369	    0.016794	    0.025796	    0.034005	    0.059801	    0.031658	   -0.006125	    0.025534	    0.022898	   -0.005287	    0.017612	    0.021413	   -0.009314	    0.012098	    0.016861	   -0.003650	    0.013211	    0.025316	   -0.008901	    0.016415	    0.021309	    0.000521	    0.021830	    0.065212	    0.052123	    0.117335
     5.700	0	0	    0	    0.020329	   -0.014013	    0.006316	    0.010184	   -0.000333	    0.009851	    0.015711	    0.005317	    0.021027	    0.026725	   -0.004075	    0.022650	    0.015869	   -0.003163	    0.012706	    0.006303	    0.002702	    0.009004	   -0.007066	    0.054631	    0.047565	    0.031149	   -0.008888	    0.022261	    0.026125	   -0.008424	    0.017701	   -0.007829	    0.021580	    0.013752	    0.015985	   -0.000034	    0.015951	    0.012048	   -0.005083	    0.006965	    0.022827	   -0.002514	    0.020312	   -0.000943	    0.013761	    0.012819	   -0.002737	    0.074413	    0.071677	    0.029081	   -0.012206	    0.016875	    0.022102	   -0.003394	    0.018708	    0.020950	   -0.005604	    0.015346	    0.016988	   -0.004012	    0.012976	    0.023638	   -0.010871	    0.012767	    0.015703	   -0.010518	    0.005185	    0.038620	    0.067529	    0.106149
     5.775	0	0	    0	    0.015767	   -0.002258	    0.013510	    0.013266	   -0.005061	    0.008204	    0.017067	    0.003194	    0.020261	    0.025334	   -0.004110	    0.021224	    0.017408	   -0.006236	    0.011172	    0.015206	   -0.005925	    0.009281	    0.007711	    0.031140	    0.038850	    0.023580	   -0.004509	    0.019071	    0.020872	   -0.005531	    0.015341	    0.027794	   -0.019608	    0.008186	    0.015155	    0.001263	    0.016419	    0.011572	   -0.004687	    0.006885	    0.014230	    0.004032	    0.018263	    0.010498	   -0.007898	    0.002600	    0.008239	    0.009059	    0.017298	    0.027699	   -0.010866	    0.016833	    0.013651	    0.004963	    0.018614	    0.019635	   -0.003989	    0.015647	    0.017449	   -0.003246	    0.014203	    0.024599	   -0.010597	    0.014002	    0.027757	   -0.011710	    0.016047	   -0.023967	    0.021998	   -0.001969
     5.850	0	0	    0	    0.030310	   -0.030017	    0.000294	    0.011416	   -0.005191	    0.006225	    0.021225	   -0.005852	    0.015373	    0.024179	   -0.005996	    0.018183	    0.015590	   -0.007264	    0.008326	   -0.009771	    0.015427	    0.005656	    0.011097	    0.017599	    0.028695	    0.032766	   -0.021044	    0.011723	    0.019911	   -0.008582	    0.011330	    0.007652	    0.005484	    0.013136	    0.013753	    0.002209	    0.015962	    0.009629	   -0.005384	    0.004245	    0.008945	   -0.001004	    0.007942	    0.021866	    0.019807	    0.041673	   -0.025350	    0.019092	   -0.006258	    0.043309	   -0.011290	    0.032019	    0.015837	   -0.001390	    0.014447	    0.017189	   -0.004918	    0.012272	    0.015470	   -0.001611	    0.013859	    0.026977	   -0.008657	    0.018320	    0.062000	    0.008157	    0.070157	    0.018406	   -0.002980	    0.015426
     5.925	0	0	    0	    0.025536	   -0.009479	    0.016057	    0.009068	    0.001298	    0.010366	    0.014450	    0.004746	    0.019196	    0.024590	   -0.005180	    0.019409	    0.010142	   -0.004709	    0.005434	   -0.015653	    0.020320	    0.004667	   -0.000806	    0.075771	    0.074966	    0.045909	    0.002497	    0.048406	    0.020822	   -0.010721	    0.010101	    0.000173	    0.016178	    0.016351	    0.014791	    0.001438	    0.016230	    0.010176	   -0.005458	    0.004718	    0.013141	   -0.008769	    0.004372	    0.034771	    0.035492	    0.070263	   -0.022433	    0.024978	    0.002545	    0.063821	    0.020898	    0.084719	    0.027568	   -0.011652	    0.015916	    0.017270	   -0.004946	    0.012324	    0.015341	   -0.001247	    0.014094	    0.030853	   -0.006888	    0.023965	    0.085029	    0.057173	    0.142202	   -0.000625	    0.063966	    0.063341
     6.000	0	0	    0	    0.016798	    0.006781	    0.023580	    0.013875	   -0.002225	    0.011650	    0.014437	    0.002177	    0.016614	    0.024130	   -0.005044	    0.019086	    0.006593	   -0.002970	    0.003623	   -0.016906	    0.015477	   -0.001429	   -0.039147	    0.060773	    0.021626	    0.045239	    0.019813	    0.065053	    0.019234	   -0.010054	    0.009180	    0.004749	    0.008119	    0.012868	    0.012084	    0.002608	    0.014692	    0.009905	   -0.004586	    0.005319	    0.011303	   -0.006781	    0.004521	   -0.000223	    0.048593	    0.048370	   -0.058870	    0.008389	   -0.050481	    0.048707	    0.028796	    0.077503	    0.016394	    0.001956	    0.018350	    0.010988	    0.000819	    0.011808	    0.013419	   -0.001352	    0.012067	    0.029031	   -0.003541	    0.025490	    0.053759	    0.069515	    0.123274	   -0.068398	    0.024218	   -0.044180
     6.075	0	0	    0	    0.022868	   -0.002638	    0.020230	    0.007710	   -0.001008	    0.006702	    0.013519	   -0.000079	    0.013440	    0.020689	   -0.004469	    0.016220	    0.007596	   -0.004224	    0.003372	   -0.004097	    0.009947	    0.005850	   -0.054315	    0.039595	   -0.014720	    0.028801	    0.023096	    0.051897	    0.015373	   -0.007418	    0.007956	    0.012590	   -0.006769	    0.005821	    0.011606	    0.000841	    0.012447	    0.007527	   -0.003578	    0.003949	    0.012085	   -0.006422	    0.005663	    0.005969	    0.011536	    0.017505	   -0.039798	    0.015321	   -0.024477	    0.028833	    0.013898	    0.042732	    0.018135	   -0.005191	    0.012944	    0.012996	   -0.006752	    0.006244	    0.011355	   -0.002811	    0.008544	    0.021060	   -0.003640	    0.017420	    0.016205	    0.039733	    0.055938	   -0.059420	   -0.022151	   -0.081571
     6.150	0	0	    0	    0.015429	   -0.004401	    0.011027	    0.002516	    0.002802	    0.005318	    0.006119	    0.008277	    0.014396	    0.019408	   -0.004837	    0.014571	    0.007247	    0.001645	    0.008891	   -0.006959	    0.012703	    0.005744	   -0.058507	    0.054764	   -0.003743	    0.016824	   -0.000145	    0.016679	    0.015886	   -0.010712	    0.005174	   -0.007829	    0.021580	    0.013752	    0.011216	   -0.000065	    0.011150	    0.007117	   -0.004604	    0.002513	    0.012086	   -0.004136	    0.007950	   -0.007839	    0.012959	    0.005120	    0.005857	    0.006435	    0.012291	    0.022414	   -0.007233	    0.015181	    0.016692	   -0.007833	    0.008859	    0.013195	   -0.003864	    0.009331	    0.011528	   -0.003759	    0.007769	    0.017637	   -0.008452	    0.009185	    0.011563	   -0.000181	    0.011382	    0.004310	   -0.027160	   -0.022851
     6.225	0	0	    0	    0.005250	   -0.001673	    0.003577	    0.008983	   -0.001275	    0.007708	    0.014879	    0.005077	    0.019957	    0.016719	   -0.001216	    0.015503	    0.004796	    0.004201	    0.008997	   -0.001211	    0.008790	    0.007579	   -0.027541	    0.062138	    0.034598	    0.016969	   -0.000972	    0.015997	    0.019467	   -0.010726	    0.008741	   -0.009647	    0.027162	    0.017516	    0.013599	    0.000501	    0.014101	    0.005871	   -0.003139	    0.002732	    0.016332	   -0.004401	    0.011931	    0.001467	   -0.000904	    0.000563	    0.008936	    0.022651	    0.031588	    0.027116	   -0.013549	    0.013567	    0.019870	   -0.006469	    0.013401	    0.018879	   -0.004232	    0.014648	    0.014812	   -0.003709	    0.011102	    0.020520	   -0.010784	    0.009735	    0.015164	   -0.007877	    0.007286	    0.041515	    0.042235	    0.083750
     6.300	0	0	    0	    0.015189	   -0.010891	    0.004298	    0.010091	    0.001134	    0.011225	    0.014352	    0.006148	    0.020499	    0.020205	   -0.003412	    0.016793	    0.010321	    0.002728	    0.013049	   -0.000242	    0.008402	    0.008160	   -0.005385	    0.055970	    0.050585	    0.028242	   -0.006238	    0.022004	    0.025445	   -0.009070	    0.016376	   -0.006931	    0.022538	    0.015607	    0.015089	    0.000253	    0.015343	    0.010177	   -0.003439	    0.006737	    0.021535	   -0.001531	    0.020004	   -0.001036	    0.012934	    0.011898	    0.007653	    0.049239	    0.056892	    0.029137	   -0.009873	    0.019264	    0.030945	   -0.011375	    0.019570	    0.021089	   -0.004568	    0.016521	    0.017583	   -0.003821	    0.013762	    0.024677	   -0.008385	    0.016292	    0.019084	   -0.010620	    0.008464	    0.039580	    0.068334	    0.107915
     6.375	0	0	    0	    0.022746	   -0.018743	    0.004003	    0.010218	    0.000537	    0.010755	    0.016388	    0.009247	    0.025634	    0.024071	   -0.003853	    0.020218	    0.009666	    0.002463	    0.012130	    0.002848	    0.007004	    0.009852	   -0.022965	    0.055026	    0.032061	    0.026120	   -0.002511	    0.023609	    0.025759	   -0.006921	    0.018839	    0.003002	    0.005373	    0.008375	    0.017167	    0.000271	    0.017438	    0.011008	   -0.002923	    0.008085	    0.020213	   -0.000374	    0.019839	    0.024831	   -0.003770	    0.021061	    0.008297	    0.012147	    0.020444	    0.038191	   -0.012515	    0.025676	    0.025131	   -0.007258	    0.017874	    0.014544	    0.000782	    0.015326	    0.019627	   -0.003240	    0.016387	    0.029295	   -0.009926	    0.019369	    0.040412	   -0.010563	    0.029848	   -0.009513	    0.017445	    0.007931
     6.450	0	0	    0	    0.023248	   -0.014303	    0.008945	    0.012895	   -0.000101	    0.012794	    0.009411	    0.011883	    0.021294	    0.025259	   -0.004910	    0.020349	    0.015728	   -0.005218	    0.010510	   -0.021947	    0.031384	    0.009437	   -0.030942	    0.085968	    0.055026	    0.040823	   -0.014892	    0.025931	    0.026285	   -0.008074	    0.018211	   -0.005599	    0.028972	    0.023373	    0.015894	    0.002288	    0.018183	    0.012508	   -0.004708	    0.007800	    0.017954	   -0.002196	    0.015757	    0.030407	    0.029346	    0.059753	   -0.002551	    0.021853	    0.019302	    0.053068	   -0.004822	    0.048245	    0.024284	    0.001595	    0.025879	    0.022760	   -0.006601	    0.016159	    0.019140	   -0.001901	    0.017239	    0.033369	   -0.005720	    0.027650	    0.068641	    0.013189	    0.081830	    0.028110	    0.013068	    0.041178
     6.525	0	0	    0	    0.033109	   -0.008514	    0.024595	    0.016610	    0.000926	    0.017535	    0.018622	    0.007772	    0.026394	    0.025744	   -0.002605	    0.023139	    0.015188	   -0.003919	    0.011270	   -0.011220	    0.022899	    0.011680	   -0.008373	    0.096009	    0.087637	    0.057590	    0.001956	    0.059546	    0.026431	   -0.006775	    0.019656	   -0.005544	    0.027449	    0.021905	    0.018839	    0.000741	    0.019580	    0.013836	   -0.005020	    0.008816	    0.019867	   -0.004403	    0.015463	    0.047409	    0.038857	    0.086266	   -0.003932	    0.019982	    0.016050	    0.072059	    0.025125	    0.097184	    0.022161	    0.009865	    0.032026	    0.022588	   -0.004346	    0.018242	    0.019815	   -0.001786	    0.018028	    0.038568	   -0.004119	    0.034449	    0.093897	    0.061249	    0.155147	    0.019494	    0.069377	    0.088871
     6.600	0	0	    0	    0.022741	    0.005406	    0.028147	    0.018029	    0.000544	    0.018573	    0.017439	    0.007956	    0.025395	    0.024978	   -0.000741	    0.024237	    0.009672	   -0.001411	    0.008261	   -0.015219	    0.020565	    0.005345	   -0.031633	    0.074209	    0.042577	    0.055116	    0.025460	    0.080576	    0.028455	   -0.009928	    0.018527	    0.008801	    0.014558	    0.023359	    0.017684	    0.001132	    0.018816	    0.013403	   -0.004361	    0.009043	    0.023920	   -0.010699	    0.013221	    0.019895	    0.045449	    0.065344	   -0.033859	   -0.001595	   -0.035454	    0.066450	    0.026874	    0.093324	    0.031329	   -0.004920	    0.026409	    0.019281	   -0.001103	    0.018178	    0.019093	   -0.001828	    0.017266	    0.038402	   -0.002229	    0.036173	    0.065083	    0.070586	    0.135669	   -0.030682	    0.024896	   -0.005786
     6.675	0	0	    0	    0.027168	   -0.002834	    0.024334	    0.014035	    0.002072	    0.016107	    0.018524	    0.004407	    0.022931	    0.028879	   -0.007024	    0.021855	    0.017669	   -0.008801	    0.008868	    0.004416	    0.015823	    0.020239	   -0.014240	    0.028503	    0.014264	    0.046318	    0.029618	    0.075936	    0.027361	   -0.008867	    0.018494	    0.006493	    0.009417	    0.015910	    0.016793	    0.001001	    0.017794	    0.011988	   -0.003943	    0.008046	    0.021453	   -0.005161	    0.016292	    0.014768	    0.030001	    0.044769	    0.012064	    0.024126	    0.036190	    0.052704	    0.016361	    0.069065	    0.023065	   -0.002792	    0.020272	    0.013798	    0.000531	    0.014329	    0.016869	   -0.002611	    0.014258	    0.027693	   -0.000432	    0.027261	    0.030394	    0.044444	    0.074837	    0.006629	   -0.014099	   -0.007470
     6.750	0	0	    0	    0.019287	    0.001060	    0.020346	    0.009819	    0.001489	    0.011307	    0.011987	    0.006085	    0.018072	    0.022188	   -0.002142	    0.020046	    0.015252	   -0.002412	    0.012840	    0.010331	    0.006775	    0.017106	    0.006462	    0.046606	    0.053067	    0.033263	    0.008685	    0.041948	    0.027366	   -0.008615	    0.018751	   -0.000598	    0.024132	    0.023534	    0.016322	   -0.000540	    0.015782	    0.011448	   -0.004428	    0.007020	    0.021126	   -0.000537	    0.020589	    0.016108	    0.004094	    0.020202	    0.024756	    0.032006	    0.056762	    0.034822	    0.002939	    0.037760	    0.023600	   -0.003023	    0.020577	    0.018503	   -0.002168	    0.016335	    0.017035	   -0.004084	    0.012950	    0.025299	   -0.007240	    0.018059	    0.018582	    0.002204	    0.020786	    0.047662	    0.056265	    0.103927
     6.825	0	0	    0	    0.010644	   -0.001742	    0.008902	    0.012038	   -0.002854	    0.009184	    0.012411	    0.005127	    0.017539	    0.020863	   -0.002693	    0.018170	    0.013822	    0.002772	    0.016594	    0.002960	    0.010990	    0.013950	    0.018810	    0.032373	    0.051183	    0.024650	   -0.001711	    0.022939	    0.026559	   -0.008446	    0.018113	    0.006227	    0.007526	    0.013753	    0.013503	   -0.000205	    0.013299	    0.011307	   -0.003395	    0.007913	    0.021057	   -0.000182	    0.020875	    0.002921	    0.010382	    0.013302	    0.006735	    0.067902	    0.074637	    0.033024	   -0.011999	    0.021025	    0.037151	   -0.020630	    0.016521	    0.017670	   -0.004292	    0.013378	    0.016265	   -0.004520	    0.011745	    0.024210	   -0.009583	    0.014627	    0.015040	   -0.010638	    0.004402	    0.049346	    0.063821	    0.113167
     6.900	0	0	    0	    0.021520	   -0.009513	    0.012007	    0.009378	   -0.002218	    0.007161	    0.013424	    0.001304	    0.014728	    0.020901	   -0.006282	    0.014619	    0.018325	   -0.005722	    0.012604	    0.006303	    0.002702	    0.009004	    0.014997	    0.033901	    0.048899	    0.027603	   -0.012030	    0.015572	    0.023263	   -0.008309	    0.014955	   -0.007644	    0.023558	    0.015914	    0.013404	   -0.001082	    0.012321	    0.010471	   -0.003411	    0.007060	    0.015359	    0.003632	    0.018992	   -0.000960	    0.004898	    0.003939	    0.004989	    0.019994	    0.024983	    0.025280	   -0.012389	    0.012891	    0.019592	    0.000263	    0.019855	    0.014980	   -0.004844	    0.010136	    0.015788	   -0.003810	    0.011978	    0.022296	   -0.008881	    0.013415	    0.015806	   -0.017176	   -0.001370	   -0.010303	    0.062065	    0.051762
     6.975	0	0	    0	    0.008879	   -0.002910	    0.005969	    0.004831	    0.001919	    0.006751	    0.009244	    0.004826	    0.014070	    0.019424	   -0.005077	    0.014347	    0.009792	    0.005071	    0.014863	   -0.016124	    0.031459	    0.015335	   -0.029802	    0.079955	    0.050153	    0.021214	   -0.009772	    0.011442	    0.021370	   -0.009193	    0.012177	   -0.012577	    0.028337	    0.015760	    0.012527	    0.000873	    0.013400	    0.009030	   -0.003474	    0.005556	    0.011202	    0.001972	    0.013173	    0.022248	    0.005919	    0.028166	   -0.014415	    0.020788	    0.006374	    0.025602	   -0.009171	    0.016431	    0.020006	   -0.001688	    0.018318	    0.012193	   -0.001017	    0.011176	    0.016005	   -0.002335	    0.013669	    0.023344	   -0.005697	    0.017648	    0.041243	   -0.004171	    0.037072	   -0.014904	   -0.000495	   -0.015399
     7.050	0	0	    0	    0.012749	    0.001536	    0.014284	    0.005943	    0.000294	    0.006238	    0.011998	    0.001379	    0.013377	    0.017662	   -0.002408	    0.015254	    0.004685	    0.001611	    0.006296	   -0.020354	    0.023786	    0.003432	   -0.012245	    0.066246	    0.054001	    0.030519	   -0.008493	    0.022026	    0.019903	   -0.009331	    0.010571	    0.009744	    0.010123	    0.019867	    0.013329	    0.000444	    0.013773	    0.007544	   -0.004632	    0.002912	    0.011138	   -0.006730	    0.004407	    0.028862	    0.030683	    0.059546	   -0.012221	    0.019420	    0.007199	    0.052138	   -0.008616	    0.043522	    0.020167	    0.000821	    0.020988	    0.014075	    0.000141	    0.014216	    0.015083	   -0.001725	    0.013358	    0.025980	   -0.006159	    0.019821	    0.063939	    0.031430	    0.095369	   -0.008675	    0.038454	    0.029779
     7.125	0	0	    0	    0.042625	   -0.022284	    0.020341	    0.005289	    0.002427	    0.007716	    0.006191	    0.009036	    0.015227	    0.025320	   -0.008547	    0.016774	    0.015571	   -0.010975	    0.004596	   -0.026941	    0.027996	    0.001055	   -0.043208	    0.107811	    0.064603	    0.049390	   -0.000377	    0.049013	    0.019240	   -0.010226	    0.009014	   -0.035986	    0.066124	    0.030138	    0.012965	    0.000712	    0.013677	    0.007955	   -0.005275	    0.002679	    0.011265	   -0.010335	    0.000930	    0.013875	    0.047084	    0.060960	   -0.027214	    0.021618	   -0.005595	    0.054333	    0.017743	    0.072075	    0.026296	   -0.004184	    0.022111	    0.014726	    0.000989	    0.015715	    0.014632	   -0.001454	    0.013178	    0.025981	   -0.004120	    0.021861	    0.056408	    0.056060	    0.112468	   -0.060449	    0.035957	   -0.024492
     7.200	0	0	    0	    0.031622	   -0.015444	    0.016178	    0.011604	   -0.004096	    0.007507	    0.011914	    0.000635	    0.012549	    0.023288	   -0.007757	    0.015532	    0.009486	   -0.008252	    0.001235	   -0.002809	    0.009968	    0.007159	   -0.029777	    0.042937	    0.013160	    0.042525	    0.014950	    0.057475	    0.018035	   -0.009296	    0.008739	   -0.000093	    0.021115	    0.021022	    0.012019	    0.001033	    0.013052	    0.006214	   -0.004732	    0.001483	    0.007988	   -0.007327	    0.000660	    0.010044	    0.023991	    0.034035	   -0.033633	    0.011472	   -0.022161	    0.039579	    0.018928	    0.058507	    0.020237	   -0.001036	    0.019201	    0.011380	   -0.001246	    0.010135	    0.012102	   -0.001751	    0.010351	    0.020167	   -0.002238	    0.017928	    0.031058	    0.045734	    0.076792	   -0.058257	   -0.027795	   -0.086052
     7.275	0	0	    0	    0.022771	   -0.013690	    0.009080	    0.008964	   -0.006332	    0.002632	    0.015234	   -0.004351	    0.010883	    0.018902	   -0.005738	    0.013164	    0.009063	   -0.011493	   -0.002429	    0.009958	   -0.007562	    0.002396	    0.018129	    0.015447	    0.033577	    0.017492	    0.008077	    0.025570	    0.016167	   -0.008420	    0.007746	    0.004911	    0.003370	    0.008281	    0.012742	    0.000042	    0.012785	    0.004989	   -0.006394	   -0.001405	    0.007232	   -0.006242	    0.000990	    0.004844	    0.005214	    0.010058	    0.009564	    0.008925	    0.018490	    0.019451	   -0.002499	    0.016952	    0.020941	   -0.009194	    0.011746	    0.016173	   -0.007216	    0.008957	    0.012236	   -0.003360	    0.008876	    0.011477	   -0.005560	    0.005917	    0.007379	    0.002584	    0.009963	    0.008700	    0.042735	    0.051435
     7.350	0	0	    0	    0.029082	   -0.019113	    0.009969	    0.015418	   -0.002356	    0.013062	    0.022041	   -0.004711	    0.017330	    0.022315	   -0.006747	    0.015568	    0.015979	   -0.010996	    0.004984	    0.011614	    0.001852	    0.013466	    0.019104	    0.037253	    0.056357	    0.031585	   -0.010498	    0.021087	    0.024524	   -0.006479	    0.018045	    0.008249	    0.010723	    0.018972	    0.016949	    0.000204	    0.017153	    0.006811	   -0.006627	    0.000183	    0.017795	   -0.005441	    0.012355	    0.011099	    0.007417	    0.018516	    0.002967	    0.064120	    0.067087	    0.029316	   -0.007529	    0.021787	    0.020770	   -0.001266	    0.019504	    0.024333	   -0.006960	    0.017373	    0.017766	   -0.003787	    0.013979	    0.018543	   -0.007744	    0.010799	    0.016977	   -0.007967	    0.009010	    0.036675	    0.078233	    0.114908
     7.425	0	0	    0	    0.004565	    0.010198	    0.014763	    0.014112	    0.000847	    0.014959	    0.019379	    0.001622	    0.021001	    0.020052	    0.000114	    0.020167	    0.004250	    0.006019	    0.010269	    0.014136	    0.001204	    0.015339	    0.005548	    0.057684	    0.063233	    0.023156	    0.001564	    0.024720	    0.029225	   -0.005833	    0.023392	    0.005885	    0.025718	    0.031603	    0.018503	    0.000305	    0.018808	    0.007662	   -0.003634	    0.004029	    0.016641	    0.003635	    0.020276	    0.010499	   -0.000366	    0.010133	    0.014845	    0.010323	    0.025168	    0.034275	   -0.010244	    0.024032	    0.027511	   -0.002936	    0.024575	    0.023380	   -0.003842	    0.019537	    0.019279	   -0.001956	    0.017323	    0.022619	   -0.007770	    0.014849	    0.030061	   -0.016215	    0.013846	   -0.001849	    0.049570	    0.047721
     7.500	0	0	    0	    0.025532	   -0.012059	    0.013473	    0.017801	   -0.001939	    0.015862	    0.022177	   -0.000574	    0.021604	    0.025381	   -0.004618	    0.020764	    0.016497	   -0.006750	    0.009747	    0.004212	    0.014405	    0.018618	    0.016897	    0.033140	    0.050037	    0.034419	   -0.013805	    0.020614	    0.028966	   -0.004868	    0.024098	    0.025012	   -0.003234	    0.021778	    0.018600	    0.000462	    0.019062	    0.010276	   -0.005361	    0.004914	    0.017583	   -0.000561	    0.017023	    0.035356	    0.012731	    0.048087	    0.000558	    0.014540	    0.015098	    0.047240	   -0.009825	    0.037415	    0.024207	    0.006333	    0.030540	    0.022128	   -0.002240	    0.019888	    0.019843	   -0.001381	    0.018463	    0.029721	   -0.005388	    0.024333	    0.060031	    0.005303	    0.065334	    0.020928	    0.007113	    0.028041
     7.575	0	0	    0	    0.028008	   -0.001247	    0.026760	    0.016769	    0.002271	    0.019040	    0.023858	   -0.003102	    0.020756	    0.025334	   -0.004110	    0.021224	    0.015089	   -0.004969	    0.010119	   -0.007661	    0.020934	    0.013273	    0.024270	    0.049834	    0.074104	    0.047462	    0.001651	    0.049113	    0.027266	   -0.006278	    0.020988	    0.016200	    0.016460	    0.032660	    0.017202	    0.001033	    0.018235	    0.010850	   -0.004403	    0.006447	    0.020271	   -0.007028	    0.013243	    0.052672	    0.034382	    0.087054	   -0.004499	    0.028209	    0.023711	    0.070959	    0.012259	    0.083218	    0.033222	   -0.004986	    0.028236	    0.017734	    0.001995	    0.019729	    0.018717	   -0.001109	    0.017608	    0.034722	   -0.003343	    0.031379	    0.086891	    0.050350	    0.137241	    0.007656	    0.072725	    0.080380
     7.650	0	0	    0	    0.029923	   -0.005382	    0.024541	    0.019099	   -0.001970	    0.017129	    0.023713	   -0.001189	    0.022524	    0.025532	   -0.003014	    0.022519	    0.017408	   -0.006236	    0.011172	   -0.001053	    0.015168	    0.014115	    0.019104	    0.037253	    0.056357	    0.056912	    0.018161	    0.075072	    0.026701	   -0.006973	    0.019727	    0.007336	    0.016646	    0.023982	    0.017898	    0.000741	    0.018639	    0.012092	   -0.004191	    0.007901	    0.019751	   -0.005512	    0.014239	    0.040472	    0.036974	    0.077446	   -0.039798	    0.022797	   -0.017000	    0.062307	    0.029877	    0.092184	    0.031321	   -0.000247	    0.031074	    0.019173	   -0.001332	    0.017841	    0.018100	   -0.000824	    0.017275	    0.035518	   -0.000730	    0.034787	    0.065218	    0.073393	    0.138612	   -0.046661	    0.040783	   -0.005878
     7.725	0	0	    0	    0.029845	   -0.007096	    0.022748	    0.012979	   -0.000230	    0.012750	    0.011992	    0.004792	    0.016785	    0.023535	   -0.004961	    0.018574	    0.019428	   -0.011573	    0.007856	   -0.004083	    0.018959	    0.014876	   -0.035527	    0.048363	    0.012836	    0.045714	    0.025728	    0.071442	    0.024388	   -0.006166	    0.018222	   -0.002499	    0.020761	    0.018263	    0.017541	   -0.000391	    0.017150	    0.011182	   -0.002501	    0.008680	    0.019366	   -0.004546	    0.014820	    0.009492	    0.034074	    0.043566	   -0.023520	    0.022347	   -0.001173	    0.042755	    0.018884	    0.061639	    0.026952	   -0.000369	    0.026582	    0.014656	    0.001008	    0.015664	    0.017555	   -0.002401	    0.015155	    0.029551	    0.001686	    0.031236	    0.041260	    0.050987	    0.092247	   -0.040212	   -0.008165	   -0.048377
     7.800	0	0	    0	    0.024889	   -0.008653	    0.016236	    0.011430	    0.000146	    0.011577	    0.018075	    0.000648	    0.018723	    0.023452	   -0.004632	    0.018820	    0.014689	   -0.004450	    0.010239	    0.013898	   -0.000162	    0.013736	   -0.019028	    0.036249	    0.017221	    0.028529	    0.002839	    0.031368	    0.023993	   -0.005576	    0.018416	    0.024996	   -0.007887	    0.017110	    0.016368	   -0.001111	    0.015257	    0.011375	   -0.004120	    0.007255	    0.019522	   -0.002112	    0.017411	    0.010534	    0.022325	    0.032858	    0.010156	    0.020805	    0.030961	    0.034367	    0.000258	    0.034625	    0.020124	    0.003165	    0.023289	    0.018453	   -0.001327	    0.017125	    0.016520	   -0.003835	    0.012684	    0.025087	   -0.003153	    0.021935	    0.025721	    0.012558	    0.038278	    0.006421	   -0.011031	   -0.004610
     7.875	0	0	    0	    0.009253	    0.000841	    0.010094	    0.007263	    0.002022	    0.009285	    0.013050	    0.002663	    0.015713	    0.021616	   -0.004977	    0.016639	    0.013073	    0.001444	    0.014517	   -0.001199	    0.014533	    0.013334	   -0.004351	    0.052104	    0.047752	    0.027321	   -0.004047	    0.023274	    0.023306	   -0.006816	    0.016490	    0.002154	    0.009676	    0.011830	    0.015032	   -0.001678	    0.013354	    0.009731	   -0.002983	    0.006748	    0.019315	   -0.000370	    0.018945	    0.006544	    0.003240	    0.009784	    0.028195	    0.006037	    0.034232	    0.029058	   -0.008319	    0.020739	    0.025861	   -0.005013	    0.020847	    0.023441	   -0.006329	    0.017112	    0.016107	   -0.004671	    0.011436	    0.022408	   -0.005737	    0.016671	    0.014327	    0.000548	    0.014874	    0.062244	    0.034345	    0.096589
     7.950	0	0	    0	    0.020181	   -0.012120	    0.008062	    0.007980	   -0.001359	    0.006620	    0.007503	    0.001479	    0.008982	    0.018517	   -0.005252	    0.013265	    0.011364	    0.001957	    0.013321	    0.004667	   -0.000974	    0.003693	    0.016195	    0.027365	    0.043560	    0.023993	   -0.009503	    0.014490	    0.022724	   -0.008842	    0.013882	   -0.006135	    0.014670	    0.008535	    0.012771	   -0.000805	    0.011967	    0.009475	   -0.002249	    0.007226	    0.017190	   -0.000411	    0.016779	   -0.002776	    0.010832	    0.008056	   -0.008833	    0.075258	    0.066426	    0.024033	   -0.013028	    0.011004	    0.026072	   -0.009739	    0.016332	    0.013221	   -0.000335	    0.012886	    0.015034	   -0.004103	    0.010931	    0.019168	   -0.005209	    0.013959	    0.009744	   -0.011154	   -0.001409	    0.028894	    0.075754	    0.104648
     8.025	0	0	    0	    0.011038	   -0.008160	    0.002879	    0.009109	   -0.006095	    0.003014	    0.014531	   -0.006855	    0.007676	    0.016961	   -0.005698	    0.011263	    0.007115	    0.003456	    0.010571	    0.010481	   -0.008999	    0.001482	    0.017754	    0.021906	    0.039661	    0.018866	   -0.006770	    0.012096	    0.019910	   -0.006980	    0.012931	    0.004995	   -0.002724	    0.002271	    0.014145	   -0.001886	    0.012259	    0.007584	   -0.001646	    0.005938	    0.013932	   -0.000033	    0.013900	    0.001144	   -0.003267	   -0.002123	    0.023703	    0.001495	    0.025198	    0.021549	   -0.013132	    0.008417	    0.027134	   -0.010197	    0.016937	    0.019597	   -0.006693	    0.012904	    0.015482	   -0.003806	    0.011676	    0.018096	   -0.005313	    0.012782	    0.014174	   -0.014221	   -0.000047	   -0.011237	    0.038059	    0.026821
     8.100	0	0	    0	    0.012631	   -0.009337	    0.003294	    0.009587	   -0.006877	    0.002710	    0.008999	   -0.004565	    0.004434	    0.017025	   -0.006873	    0.010152	    0.010065	    0.001945	    0.012009	   -0.004811	    0.015730	    0.010919	    0.000946	    0.022071	    0.023017	    0.019859	   -0.018900	    0.000959	    0.019639	   -0.009137	    0.010502	   -0.008748	    0.004427	   -0.004321	    0.014348	   -0.001377	    0.012971	    0.006297	   -0.003166	    0.003132	    0.009636	   -0.003231	    0.006405	    0.018033	    0.011053	    0.029086	   -0.003512	    0.006357	    0.002846	    0.029965	   -0.017227	    0.012739	    0.028083	   -0.014130	    0.013953	    0.020871	   -0.009096	    0.011775	    0.015546	   -0.002941	    0.012604	    0.020241	   -0.005820	    0.014420	    0.039687	   -0.000989	    0.038698	   -0.027398	    0.015221	   -0.012177
     8.175	0	0	    0	    0.025734	   -0.014843	    0.010891	    0.006830	   -0.003039	    0.003791	    0.009990	   -0.001619	    0.008371	    0.022868	   -0.010314	    0.012555	    0.014089	   -0.007466	    0.006624	   -0.023376	    0.023606	    0.000230	    0.015746	    0.037819	    0.053565	    0.041613	   -0.016549	    0.025064	    0.015123	   -0.006648	    0.008475	   -0.005868	    0.026381	    0.020514	    0.015639	   -0.001617	    0.014022	    0.006402	   -0.004457	    0.001945	    0.004125	   -0.005261	   -0.001135	    0.035766	    0.027197	    0.062963	   -0.007840	    0.016189	    0.008350	    0.050530	    0.003987	    0.054517	    0.018673	    0.006901	    0.025574	    0.017237	   -0.001389	    0.015848	    0.014731	   -0.001650	    0.013081	    0.022196	   -0.002648	    0.019548	    0.069540	    0.040711	    0.110252	    0.010330	    0.045694	    0.056024
     8.250	0	0	    0	    0.026362	   -0.002677	    0.023685	    0.009162	   -0.000168	    0.008994	    0.011503	    0.002855	    0.014358	    0.018534	   -0.004394	    0.014140	    0.006582	    0.000873	    0.007455	   -0.013112	    0.018772	    0.005659	   -0.001601	    0.059671	    0.058071	    0.047072	    0.017510	    0.064582	    0.014181	   -0.006162	    0.008019	   -0.003187	    0.021771	    0.018584	    0.014054	   -0.000641	    0.013413	    0.006051	   -0.003694	    0.002356	    0.004859	   -0.004869	   -0.000010	    0.019700	    0.046604	    0.066304	   -0.031613	    0.020246	   -0.011367	    0.053632	    0.028531	    0.082163	    0.024294	   -0.003861	    0.020433	    0.017916	   -0.004932	    0.012984	    0.012807	   -0.001430	    0.011377	    0.024100	   -0.001146	    0.022953	    0.060706	    0.075503	    0.136209	   -0.050384	    0.056679	    0.006295
     8.325	0	0	    0	    0.009303	    0.012781	    0.022085	    0.005668	    0.000605	    0.006273	    0.010572	   -0.001082	    0.009490	    0.015272	   -0.002246	    0.013025	    0.002674	   -0.000730	    0.001944	   -0.009727	    0.008132	   -0.001595	   -0.035965	    0.032238	   -0.003727	    0.037975	    0.023703	    0.061678	    0.010877	   -0.004019	    0.006858	    0.003137	    0.008230	    0.011367	    0.012460	   -0.001134	    0.011325	    0.004891	   -0.002334	    0.002558	    0.005252	   -0.007278	   -0.002027	    0.007444	    0.023669	    0.031113	   -0.032327	    0.000731	   -0.031596	    0.027483	    0.025207	    0.052690	    0.006296	    0.015196	    0.021492	    0.012907	   -0.002402	    0.010505	    0.009784	   -0.001241	    0.008543	    0.018819	    0.002019	    0.020838	    0.025230	    0.058547	    0.083777	   -0.085482	   -0.010676	   -0.096158
     8.400	0	0	    0	    0.004536	    0.005113	    0.009649	    0.003431	   -0.001866	    0.001565	    0.003880	    0.002220	    0.006100	    0.012518	   -0.004005	    0.008514	    0.005824	   -0.001446	    0.004378	   -0.009953	    0.018868	    0.008915	   -0.036661	    0.033331	   -0.003330	    0.012206	    0.008151	    0.020357	    0.008260	   -0.004840	    0.003419	   -0.016677	    0.024529	    0.007853	    0.010958	   -0.001563	    0.009395	    0.003217	   -0.001677	    0.001540	    0.004139	   -0.002495	    0.001644	   -0.009282	    0.026043	    0.016761	   -0.007972	    0.026450	    0.018479	    0.013431	   -0.001105	    0.012326	    0.014643	   -0.003422	    0.011220	    0.020069	   -0.008505	    0.011564	    0.011208	   -0.003174	    0.008034	    0.012103	   -0.001218	    0.010885	    0.007880	    0.016824	    0.024704	   -0.021971	   -0.037598	   -0.059569
     8.475	0	0	    0	    0.010417	   -0.000578	    0.009838	    0.009019	   -0.000409	    0.008609	    0.006397	    0.005811	    0.012208	    0.015116	   -0.005985	    0.009130	    0.014416	    0.001956	    0.016372	   -0.001799	    0.021887	    0.020087	   -0.002399	    0.047377	    0.044978	    0.028031	   -0.010926	    0.017105	    0.020816	   -0.009457	    0.011359	   -0.008169	    0.026570	    0.018401	    0.013569	   -0.001206	    0.012363	    0.005639	   -0.001584	    0.004055	    0.017285	   -0.004753	    0.012532	   -0.000362	    0.006563	    0.006201	    0.008368	    0.025703	    0.034072	    0.022212	   -0.005702	    0.016511	    0.019199	    0.003024	    0.022223	    0.015189	    0.003560	    0.018749	    0.013610	   -0.002212	    0.011398	    0.018197	   -0.004386	    0.013812	    0.012095	    0.006111	    0.018206	    0.028372	    0.044423	    0.072795
     8.550	0	0	    0	    0.017362	   -0.005153	    0.012209	    0.011694	   -0.001294	    0.010401	    0.019116	   -0.005778	    0.013337	    0.016274	   -0.003075	    0.013199	    0.013362	    0.002736	    0.016097	    0.015294	   -0.002726	    0.012568	    0.035799	    0.018564	    0.054363	    0.022702	   -0.003785	    0.018918	    0.021947	   -0.005559	    0.016388	    0.009417	    0.006764	    0.016181	    0.014591	   -0.001489	    0.013102	    0.007792	    0.000099	    0.007891	    0.019349	   -0.000546	    0.018802	    0.004525	    0.002794	    0.007319	   -0.006860	    0.073400	    0.066540	    0.028214	   -0.012472	    0.015742	    0.022001	    0.003613	    0.025614	    0.019363	   -0.003604	    0.015759	    0.015664	   -0.002522	    0.013142	    0.021329	   -0.003645	    0.017684	    0.014379	   -0.006964	    0.007415	    0.030624	    0.077270	    0.107893
     8.625	0	0	    0	    0.008157	    0.008236	    0.016393	    0.010890	   -0.002095	    0.008795	    0.015597	   -0.001406	    0.014191	    0.014509	    0.000038	    0.014546	    0.008722	    0.010862	    0.019584	    0.004443	    0.010785	    0.015228	    0.002957	    0.042144	    0.045102	    0.020956	   -0.001206	    0.019750	    0.023830	   -0.006861	    0.016969	    0.000885	    0.015156	    0.016041	    0.014932	   -0.001405	    0.013527	    0.009488	   -0.000991	    0.008497	    0.016157	    0.004843	    0.021000	    0.010209	   -0.006122	    0.004087	    0.020890	    0.012891	    0.033780	    0.027975	   -0.009969	    0.018006	    0.025325	    0.000332	    0.025656	    0.023585	   -0.005294	    0.018291	    0.016828	   -0.002180	    0.014648	    0.023022	   -0.003422	    0.019600	    0.027223	   -0.012890	    0.014332	   -0.009523	    0.046922	    0.037399
     8.700	0	0	    0	    0.012435	   -0.006545	    0.005890	    0.007244	    0.000900	    0.008143	    0.011163	    0.004558	    0.015721	    0.018534	   -0.004394	    0.014140	    0.014645	   -0.001665	    0.012980	   -0.008472	    0.022761	    0.014289	    0.004133	    0.039402	    0.043535	    0.023056	   -0.011830	    0.011226	    0.021030	   -0.005436	    0.015593	   -0.015473	    0.030964	    0.015491	    0.014813	   -0.000326	    0.014487	    0.007545	   -0.000437	    0.007108	    0.010780	    0.002293	    0.013073	    0.021754	    0.018942	    0.040697	   -0.002318	    0.011196	    0.008878	    0.037642	   -0.010446	    0.027196	    0.023118	    0.000795	    0.023914	    0.022917	   -0.007208	    0.015708	    0.017386	   -0.001605	    0.015781	    0.024722	   -0.001265	    0.023457	    0.051459	    0.005175	    0.056633	    0.016418	    0.005700	    0.022117
     8.775	0	0	    0	    0.021216	   -0.001417	    0.019799	    0.012320	    0.000827	    0.013147	    0.009290	    0.007734	    0.017025	    0.017730	   -0.003597	    0.014133	    0.010595	    0.004027	    0.014622	   -0.024253	    0.035882	    0.011629	   -0.008018	    0.093575	    0.085557	    0.041950	    0.000540	    0.042490	    0.024751	   -0.009447	    0.015303	    0.006083	    0.019205	    0.025289	    0.017176	   -0.001570	    0.015606	    0.008387	   -0.001400	    0.006987	    0.016107	   -0.007272	    0.008834	    0.039001	    0.039288	    0.078289	   -0.000275	    0.010777	    0.010502	    0.071838	    0.009356	    0.081193	    0.025409	    0.007641	    0.033050	    0.025311	   -0.004614	    0.020697	    0.017642	   -0.001075	    0.016567	    0.032172	   -0.000724	    0.031448	    0.085895	    0.055920	    0.141815	    0.017275	    0.081173	    0.098448
     8.850	0	0	    0	    0.040015	   -0.007539	    0.032476	    0.012087	    0.003156	    0.015243	    0.009871	    0.008292	    0.018163	    0.024039	   -0.007375	    0.016664	    0.017830	   -0.003415	    0.014415	   -0.024714	    0.034010	    0.009295	   -0.040406	    0.096445	    0.056040	    0.057102	    0.015547	    0.072649	    0.021143	   -0.005222	    0.015921	   -0.003161	    0.029344	    0.026184	    0.016503	   -0.000627	    0.015877	    0.012570	   -0.003325	    0.009245	    0.016605	   -0.008759	    0.007846	    0.014930	    0.046307	    0.061237	   -0.048719	    0.013908	   -0.034811	    0.062222	    0.033544	    0.095766	    0.026466	    0.003494	    0.029960	    0.020119	    0.001047	    0.021166	    0.016856	   -0.000403	    0.016453	    0.031498	    0.003914	    0.035412	    0.067200	    0.080101	    0.147301	   -0.047471	    0.052876	    0.005404
     8.925	0	0	    0	    0.026996	   -0.000854	    0.026142	    0.012556	   -0.003062	    0.009494	    0.016719	   -0.007043	    0.009675	    0.020778	   -0.007011	    0.013767	    0.017344	   -0.003959	    0.013386	    0.010972	    0.002657	    0.013628	   -0.031488	    0.013661	   -0.017827	    0.045385	    0.022705	    0.068090	    0.022467	   -0.008569	    0.013899	    0.009301	    0.013069	    0.022371	    0.016295	   -0.002221	    0.014074	    0.009064	   -0.001314	    0.007750	    0.017431	   -0.006947	    0.010484	    0.016690	    0.009286	    0.025977	   -0.016599	   -0.006365	   -0.022964	    0.044015	    0.016674	    0.060689	    0.027631	    0.001132	    0.028763	    0.023219	   -0.006785	    0.016433	    0.014741	   -0.001750	    0.012991	    0.025780	    0.003361	    0.029141	    0.032850	    0.052102	    0.084952	   -0.053331	   -0.001107	   -0.054438
     9.000	0	0	    0	    0.024838	   -0.000760	    0.024078	    0.011162	   -0.002447	    0.008715	    0.015253	   -0.003099	    0.012154	    0.018959	   -0.004266	    0.014693	    0.018022	   -0.000333	    0.017689	   -0.002279	    0.021663	    0.019384	   -0.031431	    0.038805	    0.007374	    0.028213	   -0.002395	    0.025818	    0.018327	   -0.004292	    0.014035	    0.012759	    0.008915	    0.021673	    0.015349	   -0.001817	    0.013532	    0.006576	   -0.001109	    0.005467	    0.013814	   -0.001811	    0.012002	    0.003065	    0.018948	    0.022014	   -0.018111	    0.027383	    0.009273	    0.028522	   -0.002653	    0.025869	    0.021038	   -0.002936	    0.018103	    0.019610	   -0.004247	    0.015363	    0.013749	   -0.002154	    0.011595	    0.019588	   -0.001393	    0.018194	    0.018594	    0.019230	    0.037823	   -0.029925	   -0.012967	   -0.042892
     9.075	0	0	    0	    0.009953	    0.003369	    0.013322	    0.005958	    0.000044	    0.006003	    0.009416	   -0.000898	    0.008518	    0.013223	    0.000344	    0.013568	    0.007905	    0.006853	    0.014758	    0.002752	    0.009597	    0.012349	   -0.024659	    0.050691	    0.026031	    0.014479	   -0.000612	    0.013868	    0.016166	   -0.004557	    0.011609	    0.001557	    0.007413	    0.008970	    0.012715	   -0.000701	    0.012014	    0.006665	   -0.000794	    0.005870	    0.011757	    0.001776	    0.013533	    0.001857	    0.007056	    0.008912	    0.006709	    0.009672	    0.016382	    0.018727	   -0.003584	    0.015143	    0.010727	    0.012751	    0.023478	    0.018609	   -0.003849	    0.014761	    0.013684	   -0.002970	    0.010714	    0.015727	   -0.001413	    0.014314	    0.009219	    0.008235	    0.017454	    0.013752	    0.023729	    0.037481
     9.150	0	0	    0	    0.015298	   -0.003378	    0.011921	    0.007045	   -0.002400	    0.004645	    0.013562	   -0.005216	    0.008345	    0.015513	   -0.005179	    0.010334	    0.012140	    0.004315	    0.016455	    0.005750	    0.000933	    0.006684	    0.004181	    0.037468	    0.041649	    0.016329	   -0.008331	    0.007998	    0.015380	   -0.005663	    0.009717	   -0.012393	    0.021371	    0.008978	    0.011591	   -0.001760	    0.009831	    0.005015	   -0.000707	    0.004308	    0.009547	    0.002263	    0.011811	    0.000079	   -0.006956	   -0.006876	    0.002712	    0.015082	    0.017794	    0.015158	   -0.010875	    0.004283	    0.012795	    0.006095	    0.018890	    0.018220	   -0.008573	    0.009647	    0.011839	   -0.002534	    0.009305	    0.014122	   -0.003758	    0.010365	    0.002236	   -0.002224	    0.000012	   -0.001670	    0.065055	    0.063385
     9.225	0	0	    0	    0.021651	   -0.011413	    0.010238	   -0.000330	    0.003257	    0.002927	    0.002907	    0.001347	    0.004254	    0.013776	   -0.005597	    0.008179	    0.011084	    0.004568	    0.015653	   -0.005177	    0.005641	    0.000463	   -0.006519	    0.036065	    0.029546	    0.016166	   -0.008422	    0.007743	    0.013503	   -0.006372	    0.007131	   -0.010758	    0.022755	    0.011997	    0.011318	   -0.001829	    0.009489	    0.005410	   -0.001211	    0.004199	    0.005932	    0.002931	    0.008863	   -0.011981	   -0.001987	   -0.013968	    0.006231	    0.007070	    0.013301	    0.011399	   -0.010478	    0.000921	    0.016358	    0.001171	    0.017529	    0.016147	   -0.005585	    0.010562	    0.011694	   -0.002268	    0.009426	    0.011739	   -0.003146	    0.008594	    0.002480	   -0.009405	   -0.006926	   -0.034907	    0.041684	    0.006777
     9.300	0	0	    0	    0.016317	   -0.013160	    0.003157	    0.003651	   -0.003892	   -0.000241	    0.005295	   -0.003707	    0.001588	    0.014830	   -0.009101	    0.005729	    0.011206	   -0.001134	    0.010072	    0.002572	    0.000035	    0.002607	   -0.006637	    0.031281	    0.024645	    0.013344	   -0.018245	   -0.004902	    0.012739	   -0.008809	    0.003930	    0.014735	   -0.005427	    0.009308	    0.011587	   -0.002781	    0.008807	    0.004141	   -0.003361	    0.000780	    0.002841	   -0.000554	    0.002287	    0.015628	    0.001379	    0.017007	   -0.016978	    0.003801	   -0.013177	    0.022123	   -0.016849	    0.005273	    0.018367	   -0.004551	    0.013817	    0.016560	   -0.007376	    0.009184	    0.011033	   -0.001299	    0.009734	    0.013503	   -0.002771	    0.010732	    0.030866	   -0.001616	    0.029249	   -0.019523	   -0.005246	   -0.024769
     9.375	0	0	    0	    0.015879	   -0.001562	    0.014317	    0.005806	   -0.002629	    0.003177	    0.001464	    0.006066	    0.007529	    0.014171	   -0.005226	    0.008945	    0.009381	   -0.006495	    0.002885	   -0.020957	    0.018144	   -0.002813	   -0.033899	    0.099508	    0.065609	    0.035070	   -0.011787	    0.023283	    0.009080	   -0.006362	    0.002718	   -0.019800	    0.034154	    0.014354	    0.010889	   -0.001591	    0.009299	    0.002034	   -0.002257	   -0.000223	   -0.001117	   -0.004454	   -0.005571	    0.024086	    0.038566	    0.062652	   -0.024335	    0.011064	   -0.013271	    0.049718	    0.008440	    0.058159	    0.016679	    0.003887	    0.020566	    0.015694	   -0.005403	    0.010291	    0.010335	   -0.000877	    0.009458	    0.017833	   -0.001597	    0.016236	    0.062361	    0.053498	    0.115859	   -0.018161	    0.068914	    0.050753
     9.450	0	0	    0	    0.012344	    0.003760	    0.016104	    0.008403	   -0.005425	    0.002978	    0.008739	   -0.004668	    0.004071	    0.013443	   -0.005612	    0.007831	    0.013715	   -0.009258	    0.004457	   -0.013424	    0.011180	   -0.002244	   -0.007756	    0.035761	    0.028005	    0.037600	    0.016354	    0.053954	    0.007756	   -0.007451	    0.000305	    0.017658	   -0.001973	    0.015685	    0.011005	   -0.002674	    0.008331	    0.002205	   -0.002047	    0.000158	   -0.002804	   -0.002367	   -0.005172	    0.007286	    0.040332	    0.047618	   -0.049486	   -0.001184	   -0.050670	    0.037400	    0.030717	    0.068117	    0.015547	    0.003079	    0.018626	    0.020693	   -0.010907	    0.009786	    0.009019	   -0.000906	    0.008114	    0.016738	    0.001557	    0.018294	    0.041249	    0.076162	    0.117411	   -0.081369	    0.055833	   -0.025536
     9.525	0	0	    0	    0.012139	    0.005740	    0.017878	    0.006084	   -0.000546	    0.005538	    0.007676	   -0.000413	    0.007263	    0.010806	   -0.003575	    0.007231	    0.001996	    0.002859	    0.004855	   -0.006515	    0.010528	    0.004013	   -0.041363	    0.043817	    0.002454	    0.027765	    0.022177	    0.049941	    0.012719	   -0.011110	    0.001609	    0.003817	    0.012499	    0.016317	    0.013119	   -0.003131	    0.009988	    0.000830	    0.000303	    0.001133	    0.004190	   -0.009288	   -0.005098	    0.004940	    0.021980	    0.026920	   -0.036031	    0.001003	   -0.035028	    0.028286	    0.015038	    0.043323	    0.014262	    0.006496	    0.020758	    0.024152	   -0.010413	    0.013739	    0.010850	   -0.001691	    0.009159	    0.015533	    0.002678	    0.018211	    0.029507	    0.047499	    0.077006	   -0.049671	   -0.019157	   -0.068828
     9.600	0	0	    0	    0.024066	   -0.000626	    0.023440	    0.007348	    0.000517	    0.007865	    0.009234	    0.004393	    0.013627	    0.015618	   -0.003775	    0.011842	    0.008357	    0.005833	    0.014190	   -0.002663	    0.016355	    0.013692	   -0.040801	    0.050478	    0.009677	    0.023324	    0.006251	    0.029576	    0.018447	   -0.005944	    0.012503	   -0.005361	    0.023374	    0.018013	    0.015154	   -0.001259	    0.013894	    0.004407	   -0.000677	    0.003730	    0.014429	   -0.004512	    0.009917	   -0.008087	    0.035113	    0.027026	   -0.007972	    0.026450	    0.018479	    0.030423	    0.001156	    0.031579	    0.027231	   -0.006680	    0.020550	    0.025348	   -0.007369	    0.017979	    0.014049	   -0.001179	    0.012870	    0.018825	    0.000640	    0.019465	    0.021208	    0.022814	    0.044022	   -0.013433	   -0.012286	   -0.025720
     9.675	0	0	    0	    0.018214	   -0.008793	    0.009421	    0.013169	   -0.003122	    0.010047	    0.009742	    0.003345	    0.013087	    0.016910	   -0.003660	    0.013250	    0.018461	   -0.000358	    0.018103	    0.010979	    0.001009	    0.011988	    0.014882	    0.019678	    0.034560	    0.025037	   -0.002931	    0.022106	    0.022753	   -0.006577	    0.016176	    0.006931	    0.006510	    0.013441	    0.015999	   -0.001831	    0.014168	    0.007501	    0.000355	    0.007856	    0.016618	    0.001307	    0.017925	    0.003453	    0.003749	    0.007203	    0.022028	   -0.000387	    0.021641	    0.025976	   -0.002774	    0.023202	    0.018991	    0.005994	    0.024985	    0.032917	   -0.013675	    0.019242	    0.016027	   -0.001882	    0.014145	    0.019932	   -0.000054	    0.019877	    0.017897	    0.008668	    0.026565	    0.042410	    0.041486	    0.083896
     9.750	0	0	    0	    0.010676	    0.001596	    0.012272	    0.012262	   -0.002496	    0.009767	    0.019183	   -0.005446	    0.013737	    0.017041	   -0.002506	    0.014536	    0.012283	    0.007467	    0.019750	    0.014535	   -0.008324	    0.006212	    0.021809	    0.033454	    0.055262	    0.025590	   -0.003986	    0.021604	    0.023026	   -0.006949	    0.016078	    0.010447	    0.003849	    0.014296	    0.015068	   -0.001898	    0.013170	    0.007786	    0.000736	    0.008523	    0.015161	    0.004539	    0.019700	    0.005282	    0.007928	    0.013210	    0.010816	    0.041817	    0.052633	    0.025849	   -0.007711	    0.018138	    0.025407	    0.001601	    0.027008	    0.027853	   -0.008103	    0.019750	    0.015652	   -0.001576	    0.014076	    0.020352	   -0.000724	    0.019628	    0.014082	    0.000485	    0.014567	    0.045070	    0.078749	    0.123819
     9.825	0	0	    0	    0.015805	   -0.009139	    0.006666	    0.002551	    0.004514	    0.007064	    0.006236	    0.005595	    0.011831	    0.015156	   -0.002539	    0.012617	    0.012825	    0.005095	    0.017920	   -0.001537	    0.008382	    0.006845	   -0.017713	    0.063184	    0.045471	    0.025417	   -0.008927	    0.016489	    0.020349	   -0.006248	    0.014101	   -0.009313	    0.020715	    0.011401	    0.015188	   -0.002493	    0.012694	    0.007977	    0.001440	    0.009417	    0.013927	    0.003128	    0.017055	   -0.009797	    0.015459	    0.005662	    0.007035	    0.038397	    0.045432	    0.021058	   -0.009344	    0.011714	    0.019970	    0.000637	    0.020607	    0.026927	   -0.010992	    0.015935	    0.016315	   -0.002664	    0.013651	    0.020460	   -0.001676	    0.018784	    0.013007	   -0.004976	    0.008031	    0.035489	    0.068784	    0.104274
     9.900	0	0	    0	    0.015928	   -0.004187	    0.011740	    0.007301	    0.000185	    0.007486	    0.007065	    0.006265	    0.013331	    0.016812	   -0.002653	    0.014158	    0.016739	    0.004097	    0.020835	    0.002943	    0.009360	    0.012303	   -0.009222	    0.064782	    0.055560	    0.023827	   -0.007255	    0.016572	    0.019282	   -0.002831	    0.016451	   -0.011087	    0.026264	    0.015177	    0.017453	   -0.002478	    0.014975	    0.006893	   -0.000250	    0.006642	    0.012324	    0.003899	    0.016223	    0.019994	   -0.005935	    0.014058	    0.026461	    0.007648	    0.034109	    0.023656	   -0.004448	    0.019208	    0.023039	    0.005518	    0.028557	    0.030872	   -0.011496	    0.019375	    0.018216	   -0.002757	    0.015460	    0.022881	   -0.004042	    0.018839	    0.027758	   -0.003166	    0.024591	    0.000597	    0.019948	    0.020544
