 [File Information]      		 [Data Line]	36
Measured Date	2024/05/21 102931
ID		Version	11.0
Name	tristan_5	[HeaderType]	11.0/11.0
Comment	
[Measurement Info.]
Holder Location	       0
Block Design	Off     
Pre.Rest Time	       0
Task Time	       0
Pos.Rest Time	       0
Loop	       0
Averaging	       1
Total Points	     913
[.INF File]
Filename	Cognitive1.INF
[Condition-1]
HV Switching	OFF
 R1 ,R2 ,R3 ,R4 ,R5 ,R6 ,R7 ,R8 
 120.00, 70.00,120.00,100.00, 90.00, 70.00,120.00,120.00
 Gain(X1,X4,X16,X64)
 R1 ,R2 ,R3 ,R4 ,R5 ,R6 ,R7 ,R8 
 1,1,1,1,1,1,1,1
[Analysis Condition]
Smoothed Type	None            
Smoothed Points	       0
Smoothed Loop	       0
Baseline Method	None            
Baseline location	
[Text Info.]
Output Mode	Continious      	Task No.		Data Type	Hb      
Time Range	    0.00	   68.40	Averaing	1
(1,3)(5,3)(5,7)(2,7)(2,4)(6,4)(6,8)(1,1)(3,3)(5,5)(7,7)(2,2)(4,4)(6,6)(8,8)(3,1)(3,5)(7,5)(7,2)(4,2)(4,6)(8,6)
         	     	     	     	    ch- 1	    ch- 1	    ch- 1	    ch- 2	    ch- 2	    ch- 2	    ch- 3	    ch- 3	    ch- 3	    ch- 4	    ch- 4	    ch- 4	    ch- 5	    ch- 5	    ch- 5	    ch- 6	    ch- 6	    ch- 6	    ch- 7	    ch- 7	    ch- 7	    ch- 8	    ch- 8	    ch- 8	    ch- 9	    ch- 9	    ch- 9	    ch-10	    ch-10	    ch-10	    ch-11	    ch-11	    ch-11	    ch-12	    ch-12	    ch-12	    ch-13	    ch-13	    ch-13	    ch-14	    ch-14	    ch-14	    ch-15	    ch-15	    ch-15	    ch-16	    ch-16	    ch-16	    ch-17	    ch-17	    ch-17	    ch-18	    ch-18	    ch-18	    ch-19	    ch-19	    ch-19	    ch-20	    ch-20	    ch-20	    ch-21	    ch-21	    ch-21	    ch-22	    ch-22	    ch-22
Time(sec)	Task	Mark	Count	    oxyHb   	  deoxyHb	  totalHb	    oxyHb   	  deoxyHb	  totalHb	    oxyHb   	  deoxyHb	  totalHb	    oxyHb   	  deoxyHb	  totalHb	    oxyHb   	  deoxyHb	  totalHb	    oxyHb   	  deoxyHb	  totalHb	    oxyHb   	  deoxyHb	  totalHb	    oxyHb   	  deoxyHb	  totalHb	    oxyHb   	  deoxyHb	  totalHb	    oxyHb   	  deoxyHb	  totalHb	    oxyHb   	  deoxyHb	  totalHb	    oxyHb   	  deoxyHb	  totalHb	    oxyHb   	  deoxyHb	  totalHb	    oxyHb   	  deoxyHb	  totalHb	    oxyHb   	  deoxyHb	  totalHb	    oxyHb   	  deoxyHb	  totalHb	    oxyHb   	  deoxyHb	  totalHb	    oxyHb   	  deoxyHb	  totalHb	    oxyHb   	  deoxyHb	  totalHb	    oxyHb   	  deoxyHb	  totalHb	    oxyHb   	  deoxyHb	  totalHb	    oxyHb   	  deoxyHb	  totalHb
     0.000	0	0Z	    0	    0.000000	    0.000000	    0.000000	    0.000000	    0.000000	    0.000000	    0.000000	    0.000000	    0.000000	    0.000000	    0.000000	    0.000000	    0.000000	    0.000000	    0.000000	    0.000000	    0.000000	    0.000000	    0.000000	    0.000000	    0.000000	    0.000000	    0.000000	    0.000000	    0.000000	    0.000000	    0.000000	    0.000000	    0.000000	    0.000000	    0.000000	    0.000000	    0.000000	    0.000000	    0.000000	    0.000000	    0.000000	    0.000000	    0.000000	    0.000000	    0.000000	    0.000000	    0.000000	    0.000000	    0.000000	    0.000000	    0.000000	    0.000000	    0.000000	    0.000000	    0.000000	    0.000000	    0.000000	    0.000000	    0.000000	    0.000000	    0.000000	    0.000000	    0.000000	    0.000000	    0.000000	    0.000000	    0.000000	    0.000000	    0.000000	    0.000000
     0.075	0	0	    0	    0.003329	    0.001810	    0.005139	    0.004169	    0.002875	    0.007044	    0.002795	    0.001785	    0.004580	    0.003028	   -0.000164	    0.002864	    0.002609	    0.001633	    0.004242	    0.004186	    0.002727	    0.006912	    0.001976	    0.004236	    0.006212	    0.002564	    0.002975	    0.005539	    0.004174	    0.003984	    0.008158	    0.005415	    0.002674	    0.008089	    0.003965	    0.001334	    0.005299	    0.005139	    0.001567	    0.006706	    0.009207	    0.007265	    0.016472	    0.003397	    0.003122	    0.006519	    0.002219	    0.000328	    0.002546	    0.002040	    0.001574	    0.003614	    0.007004	    0.006443	    0.013447	    0.003450	    0.003273	    0.006723	    0.002430	    0.002947	    0.005378	    0.010495	    0.008178	    0.018674	    0.007390	    0.006809	    0.014199	    0.001629	    0.001550	    0.003179
     0.150	0	0	    0	    0.002463	    0.003001	    0.005464	    0.003004	    0.003606	    0.006610	    0.003216	    0.002284	    0.005501	    0.003193	    0.000104	    0.003297	    0.003688	    0.002362	    0.006050	    0.002951	    0.003750	    0.006701	    0.000920	    0.003143	    0.004063	    0.001797	    0.004368	    0.006164	    0.003376	    0.004319	    0.007695	    0.005919	    0.003386	    0.009305	    0.003563	    0.002475	    0.006038	    0.006492	    0.002614	    0.009106	    0.010358	    0.009019	    0.019377	    0.003436	    0.001605	    0.005041	    0.000840	    0.000884	    0.001724	    0.001192	    0.002249	    0.003441	    0.004332	    0.008405	    0.012737	    0.002065	    0.002668	    0.004733	    0.000860	    0.001991	    0.002852	    0.009982	    0.007674	    0.017656	    0.006758	    0.008710	    0.015468	   -0.004623	    0.007741	    0.003118
     0.225	0	0	    0	    0.001919	    0.001771	    0.003690	    0.000927	    0.003574	    0.004501	    0.001981	    0.001944	    0.003924	    0.002992	   -0.000430	    0.002563	    0.002706	    0.003341	    0.006047	    0.001463	    0.003237	    0.004699	   -0.003821	    0.005619	    0.001798	    0.000767	    0.003977	    0.004745	    0.001752	    0.004739	    0.006491	    0.002917	    0.004053	    0.006970	    0.001147	    0.002441	    0.003588	    0.005259	    0.003454	    0.008713	    0.006461	    0.009978	    0.016439	   -0.000657	    0.004435	    0.003778	    0.000229	    0.000606	    0.000835	    0.000384	    0.002584	    0.002969	    0.002532	    0.008308	    0.010840	    0.001888	    0.001826	    0.003714	   -0.000155	    0.001323	    0.001167	    0.007142	    0.008909	    0.016051	    0.004995	    0.008081	    0.013075	    0.000877	    0.003949	    0.004826
     0.300	0	0	    0	    0.003201	    0.002116	    0.005317	    0.004803	    0.003821	    0.008623	    0.001239	   -0.000589	    0.000650	    0.006266	    0.000249	    0.006514	   -0.000946	    0.003050	    0.002104	   -0.001682	    0.006413	    0.004730	    0.002416	    0.002573	    0.004990	   -0.000078	    0.003897	    0.003819	    0.000101	    0.003068	    0.003169	   -0.021158	   -0.000252	   -0.021409	   -0.020388	   -0.003093	   -0.023481	   -0.002943	    0.005360	    0.002417	   -0.003056	    0.006504	    0.003448	   -0.005538	    0.005585	    0.000048	    0.004282	   -0.004164	    0.000118	    0.000581	    0.002776	    0.003357	    0.005004	    0.006406	    0.011410	    0.027870	    0.004123	    0.031993	    0.029716	    0.002643	    0.032358	    0.013978	    0.005233	    0.019211	    0.000947	    0.005765	    0.006711	    0.000840	    0.002263	    0.003103
     0.375	0	0	    0	    0.011788	   -0.000367	    0.011421	   -0.050572	    0.015941	   -0.034631	   -0.034256	    0.017541	   -0.016715	    0.005082	    0.013698	    0.018780	   -0.024969	    0.009242	   -0.015727	   -0.019914	    0.040566	    0.020651	    0.072844	    0.015936	    0.088781	   -0.001216	    0.008096	    0.006880	   -0.005300	   -0.010889	   -0.016189	   -0.136913	   -0.036299	   -0.173212	   -0.108213	   -0.037086	   -0.145298	   -0.065796	    0.001035	   -0.064761	   -0.053069	   -0.019443	   -0.072512	   -0.014041	   -0.001219	   -0.015261	    0.035347	    0.034227	    0.069574	    0.055083	   -0.000837	    0.054246	   -0.024832	    0.010604	   -0.014228	    0.088479	    0.029817	    0.118297	    0.179852	    0.059967	    0.239820	    0.020425	    0.011874	    0.032299	   -0.054382	    0.004847	   -0.049534	    0.103679	    0.024275	    0.127954
     0.450	0	0	    0	    0.060793	    0.037236	    0.098029	   -0.094252	   -0.010840	   -0.105092	   -0.066372	    0.044813	   -0.021559	    0.040110	    0.088221	    0.128330	   -0.391081	    0.008929	   -0.382152	   -0.350877	   -0.026209	   -0.377085	    0.154832	    0.100141	    0.254973	    0.021511	    0.032786	    0.054297	    0.044084	   -0.009543	    0.034542	   -0.176077	   -0.109493	   -0.285570	   -0.110649	   -0.065031	   -0.175679	   -0.161691	   -0.052297	   -0.213988	   -0.298864	   -0.123044	   -0.421908	    0.038323	    0.012569	    0.050892	    0.066929	    0.112798	    0.179727	    0.113545	    0.106402	    0.219947	   -0.034211	   -0.004046	   -0.038257	    0.091657	    0.084570	    0.176227	    0.227402	    0.182220	    0.409621	    0.035330	    0.034514	    0.069844	   -0.099660	   -0.059536	   -0.159196	    0.113850	    0.119885	    0.233735
     0.525	0	0	    0	    0.061019	    0.080359	    0.141378	   -0.129680	   -0.005488	   -0.135168	   -0.092396	    0.113992	    0.021596	    0.039292	    0.224494	    0.263786	   -0.365629	   -0.142529	   -0.508159	   -0.436799	   -0.124443	   -0.561242	    0.131974	    0.147707	    0.279680	   -0.029403	    0.079666	    0.050263	    0.038584	    0.016663	    0.055246	   -0.219137	   -0.145025	   -0.364162	   -0.108314	   -0.050822	   -0.159136	   -0.204108	   -0.031552	   -0.235660	   -0.322207	   -0.205773	   -0.527980	    0.027343	    0.040049	    0.067392	   -0.022666	    0.098178	    0.075512	    0.058705	    0.120851	    0.179556	   -0.065819	   -0.047237	   -0.113055	    0.061384	    0.056204	    0.117588	    0.221542	    0.216064	    0.437606	    0.035546	    0.047393	    0.082940	   -0.095955	   -0.064175	   -0.160129	    0.036927	    0.071506	    0.108433
     0.600	0	0	    0	    0.046970	    0.082902	    0.129872	   -0.034415	   -0.067401	   -0.101816	   -0.037830	    0.035138	   -0.002693	    0.030118	    0.276894	    0.307011	   -0.354172	   -0.144486	   -0.498658	    0.026887	   -0.277657	   -0.250770	    0.064750	    0.148760	    0.213510	   -0.087156	    0.003926	   -0.083230	    0.005771	   -0.002975	    0.002796	   -0.072530	   -0.199952	   -0.272482	   -0.049838	   -0.035611	   -0.085449	   -0.200861	   -0.042563	   -0.243424	   -0.208040	   -0.281748	   -0.489788	   -0.011048	    0.020859	    0.009812	   -0.027802	    0.003824	   -0.023978	    0.013800	    0.060174	    0.073974	   -0.041225	   -0.062387	   -0.103611	   -0.021923	    0.050021	    0.028098	    0.014962	    0.184006	    0.198968	   -0.023191	    0.058127	    0.034937	   -0.111675	   -0.072246	   -0.183921	    0.002675	    0.004409	    0.007084
     0.675	0	0	    0	   -0.016875	    0.009924	   -0.006951	   -0.030808	   -0.021900	   -0.052708	   -0.036702	   -0.005142	   -0.041844	   -0.044944	    0.094632	    0.049688	   -0.037596	    0.001704	   -0.035891	   -0.023533	   -0.021538	   -0.045071	    0.028217	    0.067754	    0.095971	   -0.067142	   -0.034128	   -0.101270	    0.012806	   -0.009616	    0.003190	    0.045604	   -0.004218	    0.041386	   -0.029661	   -0.008510	   -0.038170	   -0.045201	    0.009720	   -0.035481	    0.002032	   -0.068320	   -0.066287	    0.009159	    0.011947	    0.021106	   -0.021255	    0.000144	   -0.021112	    0.018131	    0.027092	    0.045224	   -0.025696	   -0.028025	   -0.053721	   -0.086064	   -0.014648	   -0.100711	   -0.116847	   -0.017189	   -0.134036	   -0.080683	    0.006543	   -0.074140	   -0.030238	   -0.025686	   -0.055924	    0.014952	   -0.006295	    0.008657
     0.750	0	0	    0	   -0.015195	   -0.005406	   -0.020600	   -0.035578	   -0.004913	   -0.040492	   -0.036742	   -0.012834	   -0.049576	   -0.043190	   -0.018529	   -0.061719	   -0.028609	   -0.010883	   -0.039492	   -0.020421	   -0.012598	   -0.033019	    0.054419	    0.042489	    0.096907	   -0.066687	   -0.027793	   -0.094480	   -0.018562	    0.018198	   -0.000364	   -0.063744	    0.061949	   -0.001795	   -0.092236	    0.003251	   -0.088984	   -0.038582	   -0.002661	   -0.041243	   -0.064988	    0.054118	   -0.010869	   -0.006924	    0.017403	    0.010478	    0.026048	    0.024907	    0.050955	    0.048507	    0.015281	    0.063788	   -0.025284	   -0.005290	   -0.030573	    0.030643	   -0.066443	   -0.035800	    0.056879	   -0.089211	   -0.032332	   -0.055517	   -0.055104	   -0.110622	   -0.046288	    0.017097	   -0.029191	    0.070544	    0.011801	    0.082346
     0.825	0	0	    0	    0.024528	   -0.007269	    0.017259	   -0.085970	   -0.020445	   -0.106415	   -0.074037	    0.017695	   -0.056342	    0.018496	    0.006954	    0.025450	   -0.107355	    0.004148	   -0.103207	   -0.263331	    0.131465	   -0.131867	    0.132957	    0.085520	    0.218477	   -0.023956	    0.000700	   -0.023255	    0.012944	   -0.030727	   -0.017783	   -0.202376	   -0.082856	   -0.285232	   -0.123766	   -0.092905	   -0.216671	   -0.164094	   -0.018465	   -0.182559	   -0.198062	   -0.031661	   -0.229723	    0.014551	   -0.002888	    0.011663	    0.036653	    0.100338	    0.136990	    0.091069	    0.077385	    0.168454	   -0.055847	   -0.009840	   -0.065687	    0.058357	    0.066435	    0.124792	    0.209861	    0.129658	    0.339519	   -0.015553	    0.005321	   -0.010232	   -0.132211	   -0.034541	   -0.166751	    0.081092	    0.070566	    0.151659
     0.900	0	0	    0	    0.066253	    0.071646	    0.137899	   -0.120797	   -0.014087	   -0.134885	   -0.094677	    0.091252	   -0.003425	    0.017781	    0.197325	    0.215106	   -0.385111	   -0.118924	   -0.504035	   -0.404709	   -0.053317	   -0.458026	    0.144225	    0.152484	    0.296709	   -0.043472	    0.044031	    0.000559	    0.061142	    0.009966	    0.071108	   -0.237301	   -0.157282	   -0.394583	   -0.122362	   -0.061881	   -0.184243	   -0.238943	   -0.040704	   -0.279647	   -0.343226	   -0.206709	   -0.549935	    0.033698	    0.041466	    0.075164	   -0.005419	    0.077519	    0.072100	    0.064613	    0.093424	    0.158037	   -0.082114	   -0.052598	   -0.134713	    0.044169	    0.042723	    0.086892	    0.221130	    0.201801	    0.422931	    0.012120	    0.028227	    0.040346	   -0.115442	   -0.076713	   -0.192155	    0.040639	    0.042532	    0.083171
     0.975	0	0	    0	    0.070761	    0.096507	    0.167268	   -0.147669	   -0.017971	   -0.165640	   -0.121057	    0.153912	    0.032855	    0.030164	    0.294881	    0.325045	   -0.356056	   -0.166441	   -0.522496	   -0.481488	   -0.126366	   -0.607854	    0.145398	    0.168996	    0.314394	   -0.061484	    0.025944	   -0.035540	    0.055154	    0.025154	    0.080307	   -0.230564	   -0.162441	   -0.393005	   -0.130782	   -0.030504	   -0.161286	   -0.256500	   -0.046459	   -0.302959	   -0.352107	   -0.233205	   -0.585312	    0.017993	    0.048464	    0.066458	   -0.032250	    0.051089	    0.018840	    0.051421	    0.066895	    0.118316	   -0.063325	   -0.058531	   -0.121856	    0.035454	    0.034442	    0.069896	    0.228865	    0.222431	    0.451296	    0.014429	    0.039934	    0.054363	   -0.124493	   -0.067954	   -0.192447	    0.020713	    0.001720	    0.022433
     1.050	0	0	    0	    0.078639	    0.095578	    0.174217	   -0.150897	   -0.022262	   -0.173159	   -0.133833	    0.160635	    0.026802	    0.014832	    0.337483	    0.352315	   -0.362831	   -0.156861	   -0.519692	   -0.472859	   -0.192710	   -0.665569	    0.142241	    0.174959	    0.317200	   -0.100625	   -0.020429	   -0.121054	    0.028930	   -0.005626	    0.023304	   -0.236383	   -0.160870	   -0.397253	   -0.128724	   -0.036649	   -0.165373	   -0.269109	   -0.038582	   -0.307691	   -0.358984	   -0.242158	   -0.601142	    0.005916	    0.023048	    0.028964	   -0.025844	    0.012053	   -0.013791	    0.022419	    0.047312	    0.069731	   -0.052516	   -0.065085	   -0.117601	    0.019743	    0.030550	    0.050294	    0.216794	    0.228334	    0.445128	    0.000086	    0.036511	    0.036597	   -0.118043	   -0.073458	   -0.191501	    0.001748	   -0.023655	   -0.021908
     1.125	0	0	    0	    0.058114	    0.093799	    0.151914	   -0.127633	   -0.036832	   -0.164466	   -0.093458	    0.125088	    0.031630	    0.021327	    0.330932	    0.352258	   -0.374665	   -0.134539	   -0.509204	   -0.421338	   -0.143294	   -0.564632	    0.139495	    0.166272	    0.305767	   -0.091795	   -0.047961	   -0.139755	    0.021001	   -0.015147	    0.005854	   -0.224097	   -0.163176	   -0.387274	   -0.125425	   -0.034450	   -0.159875	   -0.266698	   -0.042979	   -0.309677	   -0.339824	   -0.235143	   -0.574967	    0.011879	    0.012430	    0.024309	   -0.010936	    0.006981	   -0.003955	    0.013990	    0.025754	    0.039744	   -0.042106	   -0.055725	   -0.097831	    0.015975	    0.015939	    0.031914	    0.211766	    0.208426	    0.420192	   -0.019292	    0.027198	    0.007907	   -0.124073	   -0.073489	   -0.197562	    0.021468	   -0.031263	   -0.009795
     1.200	0	0	    0	    0.072485	    0.070187	    0.142672	   -0.132268	   -0.029744	   -0.162012	   -0.104528	    0.141088	    0.036559	    0.027094	    0.317165	    0.344260	   -0.381958	   -0.121827	   -0.503785	   -0.452467	   -0.149819	   -0.602287	    0.156134	    0.165637	    0.321771	   -0.084394	   -0.051195	   -0.135589	    0.037956	   -0.018826	    0.019130	   -0.234280	   -0.164895	   -0.399175	   -0.131915	   -0.036646	   -0.168561	   -0.272692	   -0.047001	   -0.319693	   -0.364774	   -0.226493	   -0.591267	    0.021681	    0.015645	    0.037326	   -0.005380	    0.039608	    0.034227	    0.035792	    0.032213	    0.068005	   -0.049877	   -0.052640	   -0.102517	    0.014747	    0.019255	    0.034002	    0.205856	    0.217009	    0.422865	   -0.015199	    0.022433	    0.007234	   -0.133787	   -0.077572	   -0.211359	    0.044428	   -0.008560	    0.035869
     1.275	0	0	    0	    0.047585	    0.090305	    0.137891	   -0.035866	   -0.062111	   -0.097977	   -0.044419	    0.082122	    0.037703	    0.029877	    0.321198	    0.351075	   -0.369097	   -0.140340	   -0.509437	    0.095599	   -0.279342	   -0.183744	    0.077640	    0.191368	    0.269008	   -0.076138	   -0.037039	   -0.113177	    0.032333	   -0.001677	    0.030656	   -0.025782	   -0.207602	   -0.233384	   -0.053773	   -0.052208	   -0.105981	   -0.247902	   -0.063161	   -0.311062	   -0.212580	   -0.316005	   -0.528585	    0.016852	    0.029196	    0.046049	    0.001728	    0.060857	    0.062585	    0.039796	    0.049672	    0.089468	   -0.037573	   -0.046628	   -0.084201	   -0.083850	    0.004921	   -0.078929	   -0.058452	    0.188327	    0.129875	   -0.046590	    0.034049	   -0.012541	   -0.121665	   -0.088035	   -0.209700	    0.042212	    0.006217	    0.048429
     1.350	0	0	    0	   -0.006094	    0.007376	    0.001282	   -0.044564	   -0.009279	   -0.053843	   -0.043063	    0.011420	   -0.031643	   -0.025985	    0.101348	    0.075363	   -0.027920	    0.003213	   -0.024707	   -0.019044	   -0.012300	   -0.031344	    0.063810	    0.094288	    0.158098	   -0.053509	   -0.007186	   -0.060695	    0.038067	    0.038067	    0.076133	    0.010911	    0.023924	    0.034835	   -0.062961	   -0.010405	   -0.073365	   -0.033711	    0.006089	   -0.027622	   -0.023211	   -0.031934	   -0.055144	    0.025100	    0.067345	    0.092445	   -0.009867	    0.048481	    0.038613	    0.038068	    0.039167	    0.077235	   -0.032060	   -0.038089	   -0.070149	   -0.087880	   -0.070864	   -0.158745	   -0.040844	   -0.042816	   -0.083659	   -0.074539	   -0.023738	   -0.098276	   -0.058866	   -0.023911	   -0.082777	    0.044636	   -0.002157	    0.042479
     1.425	0	0	    0	    0.000616	   -0.002580	   -0.001964	   -0.074024	   -0.007728	   -0.081752	   -0.051348	    0.026813	   -0.024535	    0.006309	    0.043281	    0.049590	   -0.085978	    0.021540	   -0.064438	   -0.063687	    0.030721	   -0.032966	    0.118996	    0.095103	    0.214099	   -0.069512	    0.005824	   -0.063688	   -0.015828	    0.016464	    0.000636	   -0.211694	   -0.041426	   -0.253120	   -0.154141	   -0.067680	   -0.221820	   -0.132994	    0.028427	   -0.104567	   -0.190733	   -0.064948	   -0.255680	   -0.003331	    0.024902	    0.021571	   -0.013137	    0.048058	    0.034920	    0.036181	    0.035871	    0.072052	   -0.054697	   -0.008842	   -0.063539	    0.014614	   -0.011217	    0.003396	    0.197715	    0.098753	    0.296468	   -0.040636	   -0.011444	   -0.052080	   -0.126540	   -0.014926	   -0.141465	    0.046639	   -0.002294	    0.044345
     1.500	0	0	    0	    0.061116	    0.042770	    0.103886	   -0.096775	   -0.017101	   -0.113875	   -0.082498	    0.058071	   -0.024427	    0.028119	    0.150403	    0.178523	   -0.333547	   -0.006219	   -0.339767	   -0.295566	   -0.021368	   -0.316934	    0.146378	    0.160708	    0.307085	   -0.079261	   -0.010219	   -0.089480	    0.014471	   -0.009324	    0.005146	   -0.219856	   -0.157284	   -0.377141	   -0.119682	   -0.085798	   -0.205480	   -0.231314	   -0.064740	   -0.296053	   -0.321894	   -0.148740	   -0.470633	    0.004707	    0.019634	    0.024341	   -0.025936	    0.040044	    0.014107	    0.033016	    0.045471	    0.078487	   -0.067658	   -0.040396	   -0.108054	   -0.011190	    0.013184	    0.001994	    0.158110	    0.207226	    0.365337	   -0.040724	    0.025247	   -0.015478	   -0.153814	   -0.059128	   -0.212942	    0.022692	    0.001691	    0.024382
     1.575	0	0	    0	    0.035924	    0.072376	    0.108300	   -0.076369	   -0.010035	   -0.086403	   -0.045873	    0.055070	    0.009196	    0.022513	    0.208710	    0.231223	   -0.183499	   -0.097822	   -0.281321	   -0.207613	    0.005919	   -0.201694	    0.114856	    0.160186	    0.275042	   -0.080798	   -0.032710	   -0.113508	   -0.002105	   -0.004876	   -0.006980	   -0.164848	   -0.125552	   -0.290400	   -0.123711	   -0.039786	   -0.163498	   -0.179012	   -0.059630	   -0.238643	   -0.225983	   -0.152138	   -0.378122	   -0.014060	    0.013571	   -0.000489	   -0.035146	    0.010101	   -0.025046	    0.006849	    0.022541	    0.029390	   -0.049128	   -0.045388	   -0.094516	   -0.035928	   -0.016578	   -0.052505	    0.099776	    0.128519	    0.228294	   -0.056254	    0.015218	   -0.041036	   -0.140263	   -0.067880	   -0.208144	    0.005395	   -0.025416	   -0.020020
     1.650	0	0	    0	    0.068434	    0.061872	    0.130305	   -0.103560	   -0.007018	   -0.110578	   -0.079400	    0.087287	    0.007887	    0.034359	    0.228623	    0.262982	   -0.287569	    0.008806	   -0.278763	   -0.401522	    0.012578	   -0.388944	    0.158748	    0.157332	    0.316080	   -0.092321	   -0.049207	   -0.141528	   -0.003923	   -0.014959	   -0.018883	   -0.248901	   -0.142987	   -0.391887	   -0.148513	   -0.074175	   -0.222688	   -0.207829	   -0.015771	   -0.223600	   -0.319944	   -0.124916	   -0.444860	    0.002636	   -0.000537	    0.002099	   -0.028601	    0.010217	   -0.018384	    0.015694	    0.018115	    0.033809	   -0.051958	   -0.039711	   -0.091669	    0.002438	   -0.014831	   -0.012394	    0.192117	    0.150063	    0.342180	   -0.046490	    0.003981	   -0.042509	   -0.144647	   -0.062223	   -0.206869	    0.007375	   -0.028545	   -0.021170
     1.725	0	0	    0	    0.080405	    0.101518	    0.181923	   -0.146435	   -0.012230	   -0.158665	   -0.106395	    0.162889	    0.056494	    0.048687	    0.314398	    0.363085	   -0.383847	   -0.081912	   -0.465759	   -0.501788	   -0.155637	   -0.657425	    0.148245	    0.190171	    0.338416	   -0.090135	   -0.053110	   -0.143246	    0.001614	   -0.025143	   -0.023529	   -0.262322	   -0.178424	   -0.440746	   -0.163441	   -0.037022	   -0.200463	   -0.281366	   -0.020745	   -0.302111	   -0.393557	   -0.227523	   -0.621079	    0.001046	    0.015847	    0.016893	   -0.003528	    0.017251	    0.013723	    0.015424	    0.023872	    0.039296	   -0.042731	   -0.056893	   -0.099625	    0.012751	    0.018719	    0.031470	    0.209733	    0.223176	    0.432909	   -0.035511	    0.015781	   -0.019730	   -0.141546	   -0.073797	   -0.215343	    0.036250	   -0.028603	    0.007647
     1.800	0	0	    0	    0.086830	    0.107176	    0.194006	   -0.147648	   -0.016282	   -0.163930	   -0.117265	    0.178747	    0.061482	    0.014859	    0.366400	    0.381259	   -0.384867	   -0.118158	   -0.503025	   -0.495919	   -0.190465	   -0.686383	    0.167941	    0.192588	    0.360528	   -0.059165	   -0.055434	   -0.114599	    0.016527	   -0.030490	   -0.013963	   -0.269813	   -0.183039	   -0.452852	   -0.167773	   -0.037735	   -0.205509	   -0.317659	   -0.048522	   -0.366181	   -0.415155	   -0.249444	   -0.664600	    0.022134	    0.021042	    0.043176	    0.052445	    0.056328	    0.108772	    0.079727	    0.050415	    0.130142	   -0.034290	   -0.053028	   -0.087318	    0.010772	    0.025577	    0.036349	    0.200467	    0.230669	    0.431136	   -0.037944	    0.027149	   -0.010794	   -0.144148	   -0.076001	   -0.220150	    0.096771	    0.016759	    0.113530
     1.875	0	0	    0	    0.087330	    0.110662	    0.197992	   -0.134141	   -0.022873	   -0.157014	   -0.090026	    0.173064	    0.083037	    0.022793	    0.361041	    0.383835	   -0.375131	   -0.135856	   -0.510987	   -0.429807	   -0.184542	   -0.614349	    0.175078	    0.201972	    0.377050	   -0.001012	   -0.003860	   -0.004871	    0.024319	   -0.024196	    0.000123	   -0.268458	   -0.178379	   -0.446837	   -0.143758	   -0.039817	   -0.183575	   -0.315237	   -0.065389	   -0.380626	   -0.409341	   -0.261911	   -0.671252	    0.038335	    0.034365	    0.072700	    0.094493	    0.102468	    0.196961	    0.125547	    0.104478	    0.230026	   -0.040570	   -0.046610	   -0.087180	   -0.008873	    0.027276	    0.018403	    0.164325	    0.221269	    0.385594	   -0.052456	    0.028191	   -0.024265	   -0.151525	   -0.077725	   -0.229250	    0.127710	    0.081039	    0.208749
     1.950	0	0	    0	    0.061360	    0.098984	    0.160344	   -0.079585	   -0.041574	   -0.121159	   -0.056216	    0.077159	    0.020943	    0.028983	    0.353680	    0.382663	   -0.311044	   -0.129529	   -0.440572	   -0.052475	   -0.117220	   -0.169695	    0.117187	    0.211285	    0.328473	    0.002561	    0.027695	    0.030257	    0.016256	   -0.016512	   -0.000256	   -0.178983	   -0.208738	   -0.387721	   -0.083144	   -0.077839	   -0.160983	   -0.241558	   -0.058742	   -0.300300	   -0.203337	   -0.303327	   -0.506663	    0.032312	    0.045655	    0.077967	    0.032589	    0.105034	    0.137623	    0.100704	    0.140536	    0.241240	   -0.059522	   -0.045977	   -0.105499	   -0.066026	    0.006843	   -0.059182	   -0.014117	    0.175659	    0.161542	   -0.081466	    0.017065	   -0.064400	   -0.124130	   -0.079984	   -0.204114	    0.053503	    0.069675	    0.123177
     2.025	0	0	    0	    0.012397	    0.045276	    0.057673	   -0.059176	   -0.026362	   -0.085537	   -0.036802	    0.003077	   -0.033725	   -0.009776	    0.138186	    0.128409	   -0.042976	    0.007488	   -0.035489	   -0.041990	   -0.012706	   -0.054696	    0.090646	    0.123736	    0.214382	   -0.050804	    0.030294	   -0.020510	   -0.014947	   -0.005209	   -0.020155	   -0.034214	   -0.029918	   -0.064132	   -0.081082	   -0.026066	   -0.107149	   -0.057852	   -0.005127	   -0.062979	   -0.133923	   -0.067721	   -0.201644	    0.003873	    0.028021	    0.031894	   -0.017658	    0.080670	    0.063013	    0.066768	    0.075377	    0.142145	   -0.041930	   -0.045875	   -0.087805	   -0.109395	   -0.057128	   -0.166523	   -0.056429	   -0.002755	   -0.059183	   -0.107784	   -0.027063	   -0.134848	   -0.081800	   -0.035399	   -0.117199	    0.038554	    0.022267	    0.060821
     2.100	0	0	    0	    0.008287	    0.022294	    0.030581	   -0.048716	   -0.009115	   -0.057831	   -0.016878	    0.027861	    0.010983	    0.023989	    0.091852	    0.115840	   -0.036368	    0.011486	   -0.024882	   -0.028077	    0.000887	   -0.027190	    0.073563	    0.104501	    0.178064	   -0.090910	   -0.010017	   -0.100926	    0.005490	   -0.005977	   -0.000487	   -0.007874	    0.002388	   -0.005485	   -0.067117	   -0.016718	   -0.083835	   -0.060329	    0.020909	   -0.039420	   -0.075754	   -0.047490	   -0.123244	    0.006294	    0.020046	    0.026341	   -0.034596	    0.016581	   -0.018015	    0.039086	    0.040632	    0.079718	   -0.039811	   -0.026954	   -0.066765	   -0.140861	   -0.090966	   -0.231828	   -0.082272	   -0.021903	   -0.104175	   -0.117495	   -0.048004	   -0.165499	   -0.044958	   -0.020975	   -0.065933	    0.030321	    0.001427	    0.031749
     2.175	0	0	    0	    0.003430	    0.010614	    0.014044	   -0.045650	    0.003009	   -0.042642	   -0.014586	    0.039806	    0.025220	    0.020187	    0.089815	    0.110002	   -0.026905	    0.027858	    0.000952	   -0.033446	    0.023992	   -0.009454	    0.069502	    0.088774	    0.158277	   -0.085590	   -0.048471	   -0.134061	   -0.000328	    0.026008	    0.025681	   -0.054991	    0.031163	   -0.023828	   -0.100124	    0.001263	   -0.098861	   -0.047188	    0.037260	   -0.009929	   -0.062998	    0.029874	   -0.033125	   -0.010068	    0.047636	    0.037568	   -0.024736	    0.010058	   -0.014678	    0.038024	    0.030620	    0.068644	   -0.037268	   -0.039178	   -0.076447	   -0.082411	   -0.104364	   -0.186776	   -0.020476	   -0.055388	   -0.075864	   -0.115780	   -0.076474	   -0.192254	   -0.035804	    0.005884	   -0.029920	    0.016338	    0.010215	    0.026553
     2.250	0	0	    0	    0.016139	    0.003631	    0.019770	   -0.105552	   -0.006516	   -0.112068	   -0.080481	    0.061876	   -0.018605	    0.023204	    0.095748	    0.118952	   -0.105483	    0.048413	   -0.057070	   -0.143604	    0.094236	   -0.049368	    0.129173	    0.099002	    0.228175	   -0.094212	   -0.058593	   -0.152804	   -0.025100	   -0.030309	   -0.055409	   -0.233927	   -0.103973	   -0.337901	   -0.154773	   -0.089168	   -0.243941	   -0.168164	    0.035110	   -0.133053	   -0.217887	   -0.054468	   -0.272355	   -0.016880	    0.000203	   -0.016677	    0.002247	    0.035662	    0.037909	    0.042494	    0.020469	    0.062962	   -0.054671	   -0.019137	   -0.073809	   -0.004652	   -0.009912	   -0.014564	    0.175615	    0.102843	    0.278459	   -0.055883	   -0.047841	   -0.103724	   -0.111715	    0.000492	   -0.111223	    0.058593	    0.006181	    0.064774
     2.325	0	0	    0	    0.063133	    0.067355	    0.130489	   -0.118321	   -0.012476	   -0.130797	   -0.074748	    0.104551	    0.029804	    0.033154	    0.227577	    0.260731	   -0.351602	   -0.053376	   -0.404979	   -0.334830	   -0.036593	   -0.371423	    0.168003	    0.158217	    0.326220	   -0.081878	   -0.045970	   -0.127848	    0.001090	   -0.019308	   -0.018217	   -0.256683	   -0.178349	   -0.435032	   -0.149052	   -0.061594	   -0.210646	   -0.257493	   -0.037502	   -0.294995	   -0.368124	   -0.175687	   -0.543811	    0.010212	    0.001554	    0.011766	    0.010075	    0.072985	    0.083060	    0.061182	    0.052027	    0.113210	   -0.075069	   -0.052414	   -0.127483	   -0.008085	    0.006985	   -0.001100	    0.176580	    0.194385	    0.370965	   -0.059927	    0.005521	   -0.054406	   -0.138385	   -0.056177	   -0.194562	    0.064298	    0.035077	    0.099375
     2.400	0	0	    0	    0.052841	    0.094015	    0.146856	   -0.076211	   -0.029596	   -0.105807	   -0.056575	    0.104036	    0.047461	    0.033387	    0.294955	    0.328342	   -0.347461	   -0.111052	   -0.458513	   -0.162363	   -0.134961	   -0.297324	    0.123483	    0.183183	    0.306665	   -0.084614	   -0.022695	   -0.107309	    0.000245	   -0.014958	   -0.014712	   -0.133601	   -0.206308	   -0.339908	   -0.087627	   -0.074026	   -0.161653	   -0.252538	   -0.064716	   -0.317254	   -0.291287	   -0.246989	   -0.538275	    0.000770	    0.022703	    0.023473	   -0.004639	    0.074152	    0.069514	    0.052385	    0.067432	    0.119818	   -0.052375	   -0.060417	   -0.112792	   -0.067849	    0.009223	   -0.058626	    0.030337	    0.195073	    0.225410	   -0.079987	    0.014486	   -0.065501	   -0.123743	   -0.065036	   -0.188779	    0.049537	    0.024398	    0.073935
     2.475	0	0	    0	    0.003527	    0.022802	    0.026329	   -0.047289	   -0.002763	   -0.050052	   -0.008886	    0.066444	    0.057558	    0.013908	    0.185840	    0.199748	   -0.103376	    0.004214	   -0.099162	   -0.067083	    0.009169	   -0.057914	    0.103340	    0.116609	    0.219949	   -0.065148	   -0.030938	   -0.096086	    0.021322	    0.000904	    0.022226	   -0.018899	   -0.022874	   -0.041773	   -0.097895	   -0.011544	   -0.109439	   -0.133328	   -0.047341	   -0.180669	   -0.118568	   -0.088495	   -0.207063	    0.013949	    0.029380	    0.043329	    0.017788	    0.068988	    0.086776	    0.069014	    0.048525	    0.117539	   -0.029060	   -0.026426	   -0.055486	   -0.078081	   -0.057003	   -0.135084	    0.011262	    0.039486	    0.050748	   -0.097863	   -0.036200	   -0.134063	   -0.063321	   -0.034739	   -0.098060	    0.073026	    0.025239	    0.098265
     2.550	0	0	    0	    0.005957	    0.011918	    0.017876	   -0.057648	    0.007473	   -0.050175	   -0.011971	    0.076045	    0.064075	    0.028229	    0.149750	    0.177979	   -0.108406	    0.027973	   -0.080432	   -0.094456	    0.032663	   -0.061793	    0.117610	    0.119771	    0.237382	   -0.038654	   -0.006619	   -0.045273	   -0.000327	    0.018097	    0.017770	   -0.123750	   -0.005921	   -0.129671	   -0.135814	   -0.024694	   -0.160508	   -0.146856	   -0.010853	   -0.157710	   -0.167874	   -0.053681	   -0.221555	    0.007663	    0.030563	    0.038226	    0.050527	    0.092000	    0.142527	    0.083660	    0.062519	    0.146180	   -0.010123	   -0.021449	   -0.031572	   -0.018744	   -0.051301	   -0.070045	    0.113374	    0.049662	    0.163036	   -0.083326	   -0.048627	   -0.131954	   -0.071025	   -0.017785	   -0.088810	    0.092775	    0.049112	    0.141887
     2.625	0	0	    0	    0.043969	    0.018954	    0.062923	   -0.100654	   -0.006860	   -0.107515	   -0.057576	    0.090420	    0.032844	    0.026326	    0.196456	    0.222782	   -0.302142	    0.053595	   -0.248547	   -0.321463	    0.022897	   -0.298566	    0.158535	    0.149079	    0.307614	   -0.037383	    0.002488	   -0.034895	    0.003102	   -0.019084	   -0.015982	   -0.236610	   -0.132248	   -0.368858	   -0.142016	   -0.064886	   -0.206902	   -0.238803	   -0.032267	   -0.271071	   -0.318052	   -0.098541	   -0.416594	    0.011141	    0.011827	    0.022968	    0.049885	    0.105524	    0.155409	    0.082817	    0.076649	    0.159466	   -0.038323	   -0.015256	   -0.053579	    0.005360	    0.006910	    0.012270	    0.173354	    0.170227	    0.343580	   -0.057288	   -0.014636	   -0.071925	   -0.121812	   -0.035019	   -0.156831	    0.095131	    0.061733	    0.156864
     2.700	0	0	    0	    0.064269	    0.073054	    0.137322	   -0.113993	    0.000660	   -0.113333	   -0.081835	    0.160323	    0.078487	    0.041213	    0.302987	    0.344200	   -0.363207	   -0.094730	   -0.457937	   -0.393515	   -0.057371	   -0.450886	    0.170618	    0.189319	    0.359937	   -0.036665	    0.002107	   -0.034558	    0.008165	   -0.015407	   -0.007242	   -0.258749	   -0.162394	   -0.421143	   -0.152588	   -0.034910	   -0.187498	   -0.276520	   -0.047229	   -0.323749	   -0.372238	   -0.202952	   -0.575190	    0.017920	    0.031627	    0.049546	    0.041162	    0.109848	    0.151010	    0.082530	    0.084380	    0.166910	   -0.042055	   -0.033867	   -0.075922	    0.005255	    0.024070	    0.029326	    0.174044	    0.203783	    0.377827	   -0.053229	    0.013374	   -0.039855	   -0.122162	   -0.053247	   -0.175409	    0.090899	    0.061283	    0.152182
     2.775	0	0	    0	    0.073778	    0.094818	    0.168596	   -0.126360	    0.006127	   -0.120233	   -0.101469	    0.179209	    0.077740	    0.021818	    0.347554	    0.369372	   -0.381565	   -0.101830	   -0.483395	   -0.436854	   -0.110416	   -0.547270	    0.161647	    0.195223	    0.356870	   -0.059597	    0.007681	   -0.051916	    0.007287	   -0.014525	   -0.007238	   -0.255881	   -0.164829	   -0.420710	   -0.165026	   -0.032057	   -0.197083	   -0.303367	   -0.049443	   -0.352810	   -0.390811	   -0.231067	   -0.621878	    0.009419	    0.034608	    0.044028	   -0.007203	    0.103650	    0.096448	    0.071661	    0.080891	    0.152552	   -0.040800	   -0.039206	   -0.080006	    0.002075	    0.032179	    0.034254	    0.170085	    0.212559	    0.382644	   -0.064159	    0.020054	   -0.044105	   -0.131337	   -0.060433	   -0.191770	    0.052106	    0.046861	    0.098967
     2.850	0	0	    0	    0.060291	    0.109633	    0.169924	   -0.143013	    0.013552	   -0.129461	   -0.119597	    0.182282	    0.062685	    0.012354	    0.349367	    0.361721	   -0.384090	   -0.106306	   -0.490396	   -0.496925	   -0.137284	   -0.634210	    0.139669	    0.191318	    0.330987	   -0.155224	   -0.027033	   -0.182257	   -0.009604	   -0.019296	   -0.028901	   -0.260757	   -0.154614	   -0.415372	   -0.177408	   -0.036868	   -0.214276	   -0.311636	   -0.055032	   -0.366668	   -0.404099	   -0.229640	   -0.633739	   -0.016465	    0.017073	    0.000608	   -0.028565	    0.006178	   -0.022388	   -0.019468	    0.044610	    0.025142	   -0.038294	   -0.033960	   -0.072254	   -0.000151	    0.034646	    0.034495	    0.166916	    0.212896	    0.379813	   -0.073844	    0.020510	   -0.053334	   -0.131522	   -0.059067	   -0.190589	    0.011808	    0.003551	    0.015359
     2.925	0	0	    0	    0.059977	    0.100578	    0.160555	   -0.155343	    0.001861	   -0.153482	   -0.122478	    0.183873	    0.061395	    0.004315	    0.346489	    0.350803	   -0.385972	   -0.117576	   -0.503548	   -0.501721	   -0.189270	   -0.690992	    0.131748	    0.184635	    0.316384	   -0.110308	   -0.109997	   -0.220304	   -0.005862	   -0.028025	   -0.033887	   -0.267092	   -0.150848	   -0.417939	   -0.175159	   -0.039395	   -0.214554	   -0.313978	   -0.060587	   -0.374565	   -0.416541	   -0.239374	   -0.655915	   -0.024514	    0.007202	   -0.017312	   -0.020826	   -0.002790	   -0.023616	   -0.013188	   -0.010574	   -0.023762	   -0.042278	   -0.029053	   -0.071331	   -0.009299	    0.040316	    0.031016	    0.157565	    0.216385	    0.373951	   -0.081206	    0.022808	   -0.058397	   -0.136715	   -0.049307	   -0.186022	    0.015718	   -0.011847	    0.003871
     3.000	0	0	    0	    0.048107	    0.104065	    0.152172	   -0.085292	   -0.042889	   -0.128181	   -0.051645	    0.141305	    0.089661	    0.031964	    0.341461	    0.373425	   -0.376220	   -0.125498	   -0.501719	   -0.088028	   -0.257313	   -0.345341	    0.121888	    0.188501	    0.310389	   -0.082886	   -0.099506	   -0.182392	    0.008183	   -0.023839	   -0.015657	   -0.126120	   -0.211803	   -0.337922	   -0.104319	   -0.076865	   -0.181184	   -0.292869	   -0.067315	   -0.360183	   -0.344845	   -0.277288	   -0.622133	    0.024461	    0.021106	    0.045567	    0.052686	    0.077045	    0.129732	    0.071618	    0.035183	    0.106802	   -0.044567	   -0.038054	   -0.082621	   -0.098871	    0.033816	   -0.065055	   -0.021933	    0.214399	    0.192466	   -0.109320	    0.025718	   -0.083602	   -0.145611	   -0.058876	   -0.204487	    0.086531	    0.035918	    0.122448
     3.075	0	0	    0	   -0.006922	    0.015285	    0.008363	   -0.073123	    0.000331	   -0.072792	   -0.045049	    0.026196	   -0.018853	    0.003809	    0.118901	    0.122710	   -0.040640	    0.002493	   -0.038147	   -0.048642	    0.000091	   -0.048551	    0.102717	    0.110972	    0.213689	   -0.005855	    0.007810	    0.001955	    0.038727	    0.043927	    0.082654	   -0.017802	    0.039336	    0.021534	   -0.102781	   -0.013353	   -0.116134	   -0.076916	   -0.046799	   -0.123715	   -0.109830	   -0.058559	   -0.168389	    0.035153	    0.046191	    0.081345	    0.059809	    0.094157	    0.153966	    0.085342	    0.081946	    0.167288	   -0.044185	   -0.034539	   -0.078725	   -0.126708	   -0.074712	   -0.201420	   -0.075738	   -0.034183	   -0.109921	   -0.151795	   -0.028075	   -0.179870	   -0.069310	   -0.031607	   -0.100917	    0.089868	    0.056394	    0.146262
     3.150	0	0	    0	    0.002781	    0.008887	    0.011667	   -0.089321	   -0.001261	   -0.090582	   -0.059196	    0.040525	   -0.018671	    0.028741	    0.080537	    0.109278	   -0.100402	    0.037962	   -0.062440	   -0.080787	    0.028430	   -0.052356	    0.139498	    0.115871	    0.255369	   -0.011227	    0.026654	    0.015427	   -0.008932	    0.028092	    0.019160	   -0.200748	   -0.026282	   -0.227030	   -0.174093	   -0.071502	   -0.245595	   -0.145410	    0.017810	   -0.127600	   -0.249331	   -0.058856	   -0.308187	    0.019593	    0.031444	    0.051037	    0.066134	    0.097299	    0.163434	    0.088738	    0.080129	    0.168867	   -0.042206	   -0.001178	   -0.043385	   -0.025970	   -0.017024	   -0.042994	    0.118580	    0.070634	    0.189214	   -0.099973	   -0.030941	   -0.130914	   -0.119635	   -0.007005	   -0.126639	    0.101027	    0.061261	    0.162287
     3.225	0	0	    0	    0.043283	    0.040815	    0.084098	   -0.081923	   -0.008640	   -0.090563	   -0.062628	    0.052871	   -0.009757	    0.015462	    0.167841	    0.183303	   -0.265840	   -0.000534	   -0.266374	   -0.178107	   -0.018624	   -0.196730	    0.135309	    0.165545	    0.300854	   -0.037649	    0.023462	   -0.014187	    0.005206	   -0.001300	    0.003906	   -0.155216	   -0.131916	   -0.287132	   -0.097987	   -0.108339	   -0.206326	   -0.249482	   -0.055002	   -0.304484	   -0.289059	   -0.149976	   -0.439035	    0.009047	    0.026015	    0.035062	   -0.020614	    0.100566	    0.079952	    0.058785	    0.094602	    0.153387	   -0.030415	   -0.020220	   -0.050635	   -0.056692	    0.028082	   -0.028610	    0.043340	    0.190139	    0.233478	   -0.095908	    0.014378	   -0.081529	   -0.130862	   -0.040785	   -0.171647	    0.035729	    0.039138	    0.074867
     3.300	0	0	    0	   -0.031204	    0.023413	   -0.007791	   -0.064048	    0.002836	   -0.061212	   -0.052800	    0.021332	   -0.031468	    0.004116	    0.137866	    0.141981	   -0.059253	   -0.019057	   -0.078310	   -0.051531	    0.007587	   -0.043943	    0.070216	    0.115635	    0.185851	   -0.098236	   -0.075972	   -0.174208	   -0.003574	   -0.010496	   -0.014070	   -0.000795	    0.002394	    0.001600	   -0.071650	   -0.026217	   -0.097868	   -0.060976	   -0.077591	   -0.138567	   -0.133153	   -0.092814	   -0.225967	   -0.009771	    0.016332	    0.006561	   -0.029137	    0.014214	   -0.014923	   -0.016629	    0.012360	   -0.004270	   -0.033725	    0.007121	   -0.026604	   -0.128438	   -0.026757	   -0.155195	   -0.092064	    0.026728	   -0.065335	   -0.129877	   -0.003350	   -0.133228	   -0.083120	   -0.028180	   -0.111300	    0.011554	   -0.009757	    0.001797
     3.375	0	0	    0	   -0.020418	   -0.013450	   -0.033868	   -0.071766	    0.013138	   -0.058627	   -0.055599	    0.024359	   -0.031240	    0.008703	    0.076929	    0.085632	   -0.055301	    0.030147	   -0.025154	   -0.056091	    0.017410	   -0.038681	    0.091604	    0.090925	    0.182529	   -0.075172	   -0.074784	   -0.149956	   -0.018535	    0.014937	   -0.003599	   -0.124387	    0.061073	   -0.063313	   -0.155452	   -0.016122	   -0.171574	   -0.063298	    0.035590	   -0.027709	   -0.172132	    0.008862	   -0.163270	   -0.017280	    0.016547	   -0.000733	   -0.029374	    0.008584	   -0.020790	   -0.004203	   -0.003250	   -0.007453	   -0.037660	   -0.000927	   -0.038588	   -0.026858	   -0.059862	   -0.086719	    0.100467	   -0.005412	    0.095055	   -0.115206	   -0.029594	   -0.144799	   -0.099256	    0.007949	   -0.091308	    0.006640	   -0.015017	   -0.008377
     3.450	0	0	    0	    0.030599	    0.007687	    0.038286	   -0.100054	    0.008834	   -0.091220	   -0.079513	    0.047493	   -0.032020	    0.025388	    0.113607	    0.138995	   -0.204480	    0.051027	   -0.153453	   -0.266583	    0.070549	   -0.196034	    0.153933	    0.129053	    0.282985	   -0.083387	   -0.069420	   -0.152807	   -0.016471	   -0.021533	   -0.038003	   -0.229715	   -0.106278	   -0.335993	   -0.167296	   -0.092111	   -0.259407	   -0.251588	   -0.009499	   -0.261087	   -0.294994	   -0.081955	   -0.376949	    0.003261	    0.001418	    0.004679	    0.001883	    0.003367	    0.005250	    0.002023	   -0.006994	   -0.004970	   -0.048845	   -0.010733	   -0.059578	   -0.012490	    0.026368	    0.013878	    0.170734	    0.180656	    0.351390	   -0.088177	    0.025531	   -0.062645	   -0.145887	   -0.021262	   -0.167150	    0.047538	   -0.028971	    0.018566
     3.525	0	0	    0	    0.044345	    0.065570	    0.109914	   -0.093887	    0.000700	   -0.093187	   -0.072305	    0.060471	   -0.011834	    0.015754	    0.213693	    0.229447	   -0.316475	   -0.086058	   -0.402533	   -0.231198	   -0.060987	   -0.292185	    0.153579	    0.164378	    0.317958	   -0.054794	   -0.048877	   -0.103671	   -0.003102	   -0.007822	   -0.010924	   -0.189709	   -0.141201	   -0.330910	   -0.095053	   -0.095221	   -0.190274	   -0.265457	   -0.065665	   -0.331122	   -0.344089	   -0.192674	   -0.536763	    0.020018	    0.019374	    0.039393	    0.040439	    0.069261	    0.109701	    0.070595	    0.050095	    0.120689	   -0.041430	   -0.022663	   -0.064093	   -0.040824	    0.038737	   -0.002087	    0.092494	    0.218086	    0.310580	   -0.095069	    0.043023	   -0.052046	   -0.154297	   -0.047569	   -0.201866	    0.086447	    0.031280	    0.117727
     3.600	0	0	    0	   -0.017343	    0.040922	    0.023579	   -0.082526	   -0.002623	   -0.085150	   -0.067698	    0.008142	   -0.059556	    0.016156	    0.154015	    0.170171	   -0.057040	   -0.072769	   -0.129810	   -0.052601	    0.006394	   -0.046207	    0.085240	    0.126037	    0.211277	   -0.046631	    0.010111	   -0.036520	   -0.001192	   -0.006167	   -0.007360	   -0.004051	   -0.023418	   -0.027469	   -0.077767	   -0.026308	   -0.104075	   -0.077811	   -0.118455	   -0.196265	   -0.189593	   -0.118715	   -0.308308	    0.005417	    0.016908	    0.022325	   -0.021899	    0.079406	    0.057508	    0.054376	    0.064957	    0.119333	   -0.052237	    0.000841	   -0.051396	   -0.126511	   -0.008321	   -0.134832	   -0.102772	    0.056556	   -0.046216	   -0.135769	    0.034978	   -0.100791	   -0.116742	   -0.046371	   -0.163114	    0.027427	    0.025340	    0.052767
     3.675	0	0	    0	   -0.021224	    0.002005	   -0.019219	   -0.076482	    0.009709	   -0.066774	   -0.065806	    0.004958	   -0.060848	   -0.020064	    0.059131	    0.039067	   -0.069513	    0.011568	   -0.057944	   -0.051411	    0.011588	   -0.039822	    0.074958	    0.102011	    0.176968	   -0.074600	    0.003134	   -0.071467	   -0.018333	    0.033410	    0.015077	   -0.040662	    0.059766	    0.019104	   -0.090995	   -0.005730	   -0.096725	   -0.085430	    0.022475	   -0.062955	   -0.168595	   -0.015880	   -0.184474	   -0.022306	    0.019563	   -0.002744	   -0.034022	    0.034740	    0.000717	    0.035926	    0.043360	    0.079286	   -0.036518	   -0.007761	   -0.044279	   -0.114498	   -0.065539	   -0.180037	   -0.035131	   -0.030038	   -0.065169	   -0.136851	   -0.015371	   -0.152222	   -0.105173	   -0.005921	   -0.111095	    0.013894	    0.004983	    0.018877
     3.750	0	0	    0	   -0.010131	   -0.008711	   -0.018842	   -0.083115	    0.010691	   -0.072424	   -0.065898	    0.015399	   -0.050499	   -0.003386	    0.060775	    0.057389	   -0.119964	    0.018775	   -0.101190	   -0.097824	    0.052265	   -0.045559	    0.125662	    0.115932	    0.241594	   -0.098234	   -0.054845	   -0.153079	   -0.034141	   -0.007348	   -0.041489	   -0.191907	   -0.011818	   -0.203724	   -0.152170	   -0.072127	   -0.224297	   -0.182979	    0.016091	   -0.166888	   -0.250686	   -0.074038	   -0.324725	   -0.007986	    0.006176	   -0.001811	   -0.018657	    0.015993	   -0.002664	    0.006250	    0.014613	    0.020862	   -0.042126	   -0.004696	   -0.046823	   -0.018802	   -0.005179	   -0.023981	    0.141447	    0.105689	    0.247136	   -0.108877	    0.005904	   -0.102974	   -0.142951	   -0.014343	   -0.157294	    0.019423	   -0.007602	    0.011821
     3.825	0	0	    0	    0.029042	    0.034436	    0.063478	   -0.080714	    0.016663	   -0.064051	   -0.060571	    0.039267	   -0.021304	    0.005993	    0.129317	    0.135309	   -0.267545	   -0.015618	   -0.283163	   -0.136590	   -0.016895	   -0.153485	    0.130506	    0.164579	    0.295085	   -0.055873	   -0.055906	   -0.111780	    0.005813	    0.011087	    0.016901	   -0.138569	   -0.106078	   -0.244647	   -0.085023	   -0.077870	   -0.162893	   -0.246677	   -0.077217	   -0.323894	   -0.279777	   -0.147446	   -0.427224	    0.025259	    0.047919	    0.073178	   -0.007625	    0.020668	    0.013044	    0.033206	    0.023557	    0.056762	   -0.037459	   -0.003838	   -0.041297	   -0.055150	    0.041400	   -0.013750	    0.035245	    0.197652	    0.232897	   -0.090544	    0.047934	   -0.042610	   -0.135158	   -0.025669	   -0.160827	    0.037710	    0.000504	    0.038214
     3.900	0	0	    0	   -0.015007	    0.018202	    0.003195	   -0.065386	    0.007266	   -0.058120	   -0.072544	   -0.000873	   -0.073417	   -0.007480	    0.104227	    0.096747	   -0.080261	   -0.015193	   -0.095455	   -0.046731	    0.023185	   -0.023545	    0.080498	    0.122452	    0.202950	   -0.064175	   -0.027987	   -0.092162	   -0.005559	    0.012012	    0.006453	   -0.005393	    0.016115	    0.010722	   -0.078856	   -0.025925	   -0.104781	   -0.078757	   -0.058244	   -0.137001	   -0.143248	   -0.097807	   -0.241056	   -0.008693	    0.036261	    0.027568	   -0.021036	    0.015605	   -0.005431	    0.034333	    0.026647	    0.060980	   -0.019684	    0.010668	   -0.009015	   -0.102062	   -0.016915	   -0.118976	   -0.058317	    0.029789	   -0.028528	   -0.120597	    0.041981	   -0.078616	   -0.083327	   -0.026331	   -0.109659	    0.018246	   -0.014425	    0.003821
     3.975	0	0	    0	   -0.016909	   -0.002865	   -0.019773	   -0.071222	    0.014113	   -0.057110	   -0.068091	   -0.002354	   -0.070445	   -0.011828	    0.038080	    0.026252	   -0.078227	    0.007896	   -0.070331	   -0.047049	    0.021110	   -0.025939	    0.103707	    0.099330	    0.203037	   -0.068309	   -0.035365	   -0.103674	   -0.020021	    0.028650	    0.008629	   -0.091088	    0.043825	   -0.047264	   -0.123168	   -0.023418	   -0.146586	   -0.092564	    0.015996	   -0.076568	   -0.200240	   -0.016019	   -0.216259	   -0.007117	    0.014438	    0.007321	   -0.006076	    0.012751	    0.006675	    0.028444	    0.028470	    0.056914	   -0.025806	    0.015650	   -0.010156	   -0.047385	   -0.033677	   -0.081062	    0.072851	    0.026924	    0.099775	   -0.103258	    0.008582	   -0.094676	   -0.108946	    0.010370	   -0.098577	    0.042391	   -0.025317	    0.017074
     4.050	0	0	    0	    0.011113	   -0.003645	    0.007468	   -0.080127	    0.014988	   -0.065139	   -0.048894	    0.020465	   -0.028430	    0.005418	    0.059647	    0.065065	   -0.152124	    0.009977	   -0.142147	   -0.151637	    0.084534	   -0.067103	    0.144647	    0.130417	    0.275064	   -0.063183	   -0.036995	   -0.100177	   -0.006502	   -0.005046	   -0.011548	   -0.176370	   -0.050738	   -0.227108	   -0.140671	   -0.085902	   -0.226573	   -0.229684	   -0.026351	   -0.256035	   -0.250126	   -0.088257	   -0.338382	    0.008023	    0.012918	    0.020941	    0.031642	    0.044572	    0.076215	    0.058102	    0.027843	    0.085945	   -0.041193	    0.008290	   -0.032903	   -0.018103	    0.027078	    0.008974	    0.136309	    0.167030	    0.303338	   -0.093979	    0.045857	   -0.048122	   -0.146544	   -0.018319	   -0.164863	    0.084122	    0.015804	    0.099926
     4.125	0	0	    0	    0.002121	    0.033601	    0.035723	   -0.074707	    0.016388	   -0.058319	   -0.077498	    0.037244	   -0.040254	   -0.001112	    0.118028	    0.116916	   -0.142150	   -0.050088	   -0.192239	   -0.049330	    0.035660	   -0.013670	    0.087410	    0.154911	    0.242321	   -0.024400	   -0.009701	   -0.034101	    0.002343	   -0.001212	    0.001131	   -0.022515	   -0.060720	   -0.083235	   -0.074467	   -0.047929	   -0.122396	   -0.179444	   -0.109794	   -0.289238	   -0.174051	   -0.129867	   -0.303917	    0.005680	    0.018489	    0.024170	    0.045061	    0.095061	    0.140122	    0.078229	    0.060321	    0.138550	   -0.033406	   -0.000760	   -0.034166	   -0.114314	    0.007666	   -0.106648	   -0.098991	    0.101669	    0.002677	   -0.099730	    0.054305	   -0.045425	   -0.120973	   -0.039079	   -0.160052	    0.084701	    0.045476	    0.130177
     4.200	0	0	    0	   -0.011715	    0.006852	   -0.004864	   -0.060435	    0.021922	   -0.038513	   -0.060755	    0.001911	   -0.058844	   -0.039330	    0.032822	   -0.006508	   -0.053577	   -0.004469	   -0.058046	   -0.037824	    0.014681	   -0.023143	    0.061410	    0.108973	    0.170384	   -0.037381	    0.043623	    0.006243	    0.017514	    0.057106	    0.074620	    0.000226	    0.068448	    0.068674	   -0.059775	   -0.003748	   -0.063523	   -0.055370	    0.006583	   -0.048787	   -0.047664	    0.018342	   -0.029322	   -0.004558	    0.060848	    0.056290	   -0.028549	    0.058558	    0.030010	    0.059610	    0.064850	    0.124459	   -0.039522	   -0.000464	   -0.039986	   -0.112113	   -0.058323	   -0.170436	   -0.115881	   -0.043691	   -0.159572	   -0.139100	    0.001775	   -0.137324	   -0.045031	    0.010041	   -0.034989	    0.031309	    0.013185	    0.044494
     4.275	0	0	    0	   -0.011219	    0.004399	   -0.006819	   -0.073601	    0.021826	   -0.051775	   -0.061325	    0.008707	   -0.052618	   -0.026226	    0.001441	   -0.024785	   -0.075583	    0.012974	   -0.062609	   -0.047786	    0.030074	   -0.017712	    0.089869	    0.095142	    0.185011	   -0.072000	    0.004372	   -0.067628	   -0.037945	    0.040820	    0.002875	   -0.157342	    0.047857	   -0.109485	   -0.147109	   -0.033961	   -0.181070	   -0.106884	    0.029946	   -0.076938	   -0.198244	    0.037687	   -0.160556	   -0.027963	    0.026745	   -0.001217	   -0.023194	    0.013122	   -0.010072	    0.029372	    0.042946	    0.072318	   -0.040346	    0.014661	   -0.025685	   -0.014475	   -0.005447	   -0.019921	    0.106658	    0.025840	    0.132497	   -0.090915	   -0.004579	   -0.095494	   -0.112066	    0.033273	   -0.078793	    0.017190	   -0.011560	    0.005630
     4.350	0	0	    0	    0.039826	    0.021693	    0.061519	   -0.107196	    0.018880	   -0.088316	   -0.071186	    0.042203	   -0.028982	    0.012926	    0.077147	    0.090073	   -0.168800	    0.046682	   -0.122118	   -0.186194	    0.067442	   -0.118752	    0.135988	    0.133281	    0.269269	   -0.075920	   -0.038042	   -0.113961	   -0.009619	   -0.008305	   -0.017924	   -0.207201	   -0.082070	   -0.289271	   -0.147832	   -0.081161	   -0.228994	   -0.222042	   -0.032584	   -0.254626	   -0.277123	   -0.038730	   -0.315854	   -0.004423	    0.001078	   -0.003345	   -0.021257	    0.013139	   -0.008118	    0.023240	    0.027808	    0.051048	   -0.066148	   -0.010373	   -0.076520	   -0.009458	    0.056306	    0.046848	    0.144208	    0.178733	    0.322941	   -0.083283	    0.050569	   -0.032714	   -0.143443	   -0.010311	   -0.153753	    0.020217	   -0.016400	    0.003818
     4.425	0	0	    0	    0.037397	    0.066113	    0.103510	   -0.061407	    0.008462	   -0.052945	   -0.043968	    0.059269	    0.015301	    0.010826	    0.158243	    0.169069	   -0.204843	   -0.048245	   -0.253088	   -0.015073	   -0.013747	   -0.028820	    0.115372	    0.141392	    0.256765	   -0.064007	   -0.043961	   -0.107968	   -0.002522	    0.002540	    0.000018	   -0.053131	   -0.120442	   -0.173572	   -0.071896	   -0.033564	   -0.105460	   -0.194835	   -0.073745	   -0.268580	   -0.182763	   -0.153088	   -0.335851	   -0.005759	    0.015029	    0.009270	    0.005648	    0.025568	    0.031216	    0.041328	    0.021401	    0.062729	   -0.043852	   -0.022104	   -0.065956	   -0.072802	    0.042634	   -0.030168	   -0.081616	    0.162878	    0.081263	   -0.084177	    0.063248	   -0.020929	   -0.123867	   -0.027898	   -0.151765	    0.058146	   -0.005371	    0.052775
     4.500	0	0	    0	   -0.002050	    0.013305	    0.011255	   -0.047474	    0.026620	   -0.020855	   -0.053194	    0.021867	   -0.031328	   -0.017831	    0.082053	    0.064221	   -0.042979	    0.025372	   -0.017607	   -0.024919	    0.021279	   -0.003640	    0.062806	    0.105732	    0.168538	   -0.051415	   -0.010698	   -0.062113	    0.020108	    0.030720	    0.050829	    0.011340	    0.074760	    0.086100	   -0.042083	    0.000044	   -0.042039	   -0.032261	    0.026309	   -0.005952	   -0.020012	    0.001398	   -0.018613	    0.009475	    0.045634	    0.055109	   -0.022694	    0.008398	   -0.014296	    0.044756	    0.041568	    0.086324	   -0.017264	    0.003221	   -0.014042	   -0.096860	   -0.028769	   -0.125629	   -0.127916	   -0.025446	   -0.153362	   -0.124418	    0.020524	   -0.103894	   -0.030783	    0.015625	   -0.015159	    0.028851	   -0.002300	    0.026550
     4.575	0	0	    0	   -0.001733	    0.009227	    0.007493	   -0.044181	    0.039511	   -0.004670	   -0.049065	    0.022360	   -0.026705	   -0.020689	    0.011849	   -0.008840	   -0.038183	    0.028386	   -0.009797	   -0.017778	    0.029811	    0.012033	    0.066884	    0.078582	    0.145465	   -0.054364	   -0.026625	   -0.080989	    0.007567	    0.049294	    0.056861	   -0.036564	    0.098119	    0.061555	   -0.072877	    0.025278	   -0.047599	   -0.034149	    0.031954	   -0.002196	   -0.040338	    0.106505	    0.066167	   -0.004343	    0.046343	    0.042000	   -0.021976	    0.004520	   -0.017456	    0.045236	    0.033029	    0.078265	   -0.019408	    0.000391	   -0.019017	   -0.046821	   -0.046999	   -0.093820	   -0.041928	   -0.076161	   -0.118089	   -0.107212	   -0.024497	   -0.131709	   -0.027124	    0.052800	    0.025676	    0.020317	   -0.006600	    0.013717
     4.650	0	0	    0	    0.008239	    0.007353	    0.015592	   -0.089423	    0.037122	   -0.052301	   -0.053028	    0.027452	   -0.025575	    0.016964	    0.014134	    0.031098	   -0.081180	    0.033329	   -0.047851	   -0.058100	    0.090493	    0.032393	    0.129585	    0.101365	    0.230950	   -0.057825	   -0.030292	   -0.088116	   -0.019887	   -0.008791	   -0.028678	   -0.209729	   -0.022792	   -0.232521	   -0.154075	   -0.061432	   -0.215507	   -0.122449	    0.010782	   -0.111667	   -0.171028	   -0.002475	   -0.173503	   -0.002924	    0.010926	    0.008002	    0.016575	    0.015782	    0.032357	    0.042524	    0.016483	    0.059007	   -0.051676	    0.015491	   -0.036185	    0.027643	    0.069568	    0.097211	    0.175165	    0.127020	    0.302185	   -0.048617	    0.033223	   -0.015394	   -0.115920	    0.033903	   -0.082016	    0.059999	   -0.015003	    0.044996
     4.725	0	0	    0	    0.057194	    0.059346	    0.116540	   -0.094755	    0.027089	   -0.067666	   -0.067455	    0.069670	    0.002215	    0.029062	    0.142503	    0.171565	   -0.269798	    0.024319	   -0.245479	   -0.165088	    0.016011	   -0.149077	    0.157813	    0.151268	    0.309081	   -0.031176	   -0.020836	   -0.052013	    0.003543	    0.000035	    0.003578	   -0.236517	   -0.105063	   -0.341581	   -0.080456	   -0.079239	   -0.159694	   -0.198039	   -0.039128	   -0.237166	   -0.276996	   -0.098508	   -0.375503	    0.021138	    0.019599	    0.040737	    0.058337	    0.062554	    0.120892	    0.086609	    0.055255	    0.141864	   -0.072756	   -0.012853	   -0.085609	    0.006840	    0.084030	    0.090870	    0.118741	    0.219479	    0.338220	   -0.051045	    0.081039	    0.029994	   -0.132074	   -0.016994	   -0.149067	    0.102416	    0.033189	    0.135605
     4.800	0	0	    0	    0.008193	    0.078261	    0.086454	   -0.063118	    0.032733	   -0.030385	   -0.076078	    0.033253	   -0.042825	    0.025875	    0.150022	    0.175897	   -0.031364	   -0.049861	   -0.081226	   -0.040339	    0.042365	    0.002026	    0.094616	    0.129429	    0.224045	    0.001121	    0.021585	    0.022706	    0.008368	   -0.000403	    0.007965	   -0.025765	   -0.043176	   -0.068940	   -0.056231	   -0.022000	   -0.078230	   -0.052880	   -0.054895	   -0.107775	   -0.141305	   -0.050506	   -0.191811	    0.036695	    0.014423	    0.051118	    0.049178	    0.099207	    0.148385	    0.089174	    0.080092	    0.169267	   -0.045456	   -0.011398	   -0.056854	   -0.071621	    0.030774	   -0.040847	   -0.109375	    0.048492	   -0.060883	   -0.098231	    0.090204	   -0.008028	   -0.078813	   -0.033624	   -0.112437	    0.080984	    0.050420	    0.131404
     4.875	0	0	    0	    0.001130	    0.017875	    0.019005	   -0.047399	    0.042057	   -0.005342	   -0.050583	    0.022756	   -0.027827	   -0.020396	    0.031588	    0.011191	   -0.037750	    0.032255	   -0.005495	   -0.019802	    0.020255	    0.000453	    0.080508	    0.093860	    0.174368	    0.000436	    0.051348	    0.051784	    0.024819	    0.061493	    0.086311	   -0.007473	    0.078230	    0.070757	   -0.037969	    0.015855	   -0.022114	   -0.030538	    0.033497	    0.002959	   -0.039610	    0.067432	    0.027821	    0.023827	    0.062234	    0.086061	    0.010288	    0.071776	    0.082064	    0.079697	    0.081480	    0.161177	   -0.016941	    0.018438	    0.001497	   -0.098383	   -0.005300	   -0.103683	   -0.136878	   -0.036492	   -0.173370	   -0.107234	    0.015014	   -0.092220	   -0.029887	    0.037264	    0.007377	    0.066630	    0.023295	    0.089926
     4.950	0	0	    0	    0.002173	    0.020503	    0.022676	   -0.040348	    0.048905	    0.008557	   -0.050608	    0.026235	   -0.024374	   -0.018972	    0.008753	   -0.010218	   -0.037118	    0.032505	   -0.004613	   -0.019424	    0.032443	    0.013019	    0.060140	    0.087184	    0.147324	   -0.032110	    0.040168	    0.008059	    0.011997	    0.057839	    0.069836	   -0.011686	    0.084227	    0.072541	   -0.032462	    0.023322	   -0.009140	   -0.023448	    0.040964	    0.017516	   -0.027267	    0.095304	    0.068037	    0.018520	    0.059732	    0.078252	   -0.018797	    0.029735	    0.010938	    0.063387	    0.064422	    0.127809	   -0.026430	    0.018676	   -0.007754	   -0.096207	   -0.022736	   -0.118943	   -0.134154	   -0.051945	   -0.186098	   -0.109616	   -0.012015	   -0.121631	   -0.016258	    0.053852	    0.037594	    0.056465	    0.005765	    0.062230
     5.025	0	0	    0	   -0.000740	    0.017241	    0.016501	   -0.040529	    0.053470	    0.012941	   -0.053520	    0.021439	   -0.032081	   -0.012066	    0.005326	   -0.006740	   -0.038847	    0.037373	   -0.001474	   -0.009244	    0.036309	    0.027065	    0.091581	    0.077538	    0.169119	   -0.045694	   -0.007155	   -0.052850	   -0.015667	    0.053769	    0.038102	   -0.100362	    0.074883	   -0.025479	   -0.084975	    0.019300	   -0.065674	   -0.025061	    0.050838	    0.025777	   -0.111162	    0.113027	    0.001865	    0.019652	    0.044430	    0.064082	    0.038787	    0.021431	    0.060217	    0.071195	    0.044638	    0.115834	   -0.010519	    0.015799	    0.005279	    0.025505	   -0.006237	    0.019268	    0.054202	   -0.042082	    0.012120	   -0.052971	   -0.013660	   -0.066631	   -0.046690	    0.061477	    0.014787	    0.089249	    0.002933	    0.092181
     5.100	0	0	    0	    0.026154	    0.010987	    0.037141	   -0.047849	    0.043416	   -0.004433	   -0.045824	    0.032012	   -0.013811	    0.036005	    0.041757	    0.077763	   -0.074666	    0.034586	   -0.040080	    0.000083	    0.075661	    0.075745	    0.118239	    0.120968	    0.239207	    0.001200	    0.013818	    0.015019	   -0.003414	   -0.000467	   -0.003881	   -0.139627	   -0.053241	   -0.192867	   -0.037276	   -0.050063	   -0.087339	   -0.115054	    0.003121	   -0.111933	   -0.121514	   -0.016245	   -0.137758	    0.037778	    0.033038	    0.070817	    0.047720	    0.094286	    0.142005	    0.103143	    0.077234	    0.180377	   -0.031712	    0.020971	   -0.010741	    0.005401	    0.103457	    0.108858	    0.021920	    0.173482	    0.195402	   -0.025566	    0.077075	    0.051509	   -0.085943	    0.014264	   -0.071679	    0.089323	    0.051137	    0.140460
     5.175	0	0	    0	    0.000447	    0.023392	    0.023839	   -0.027874	    0.043687	    0.015814	   -0.041214	    0.014256	   -0.026958	    0.000037	    0.078119	    0.078156	   -0.044730	    0.060445	    0.015715	   -0.005875	    0.039315	    0.033440	    0.073638	    0.102884	    0.176522	   -0.026694	    0.048171	    0.021477	    0.012386	    0.014844	    0.027229	    0.014646	    0.043737	    0.058383	   -0.004327	    0.022424	    0.018097	   -0.000618	    0.000989	    0.000371	   -0.008936	   -0.019722	   -0.028658	    0.040869	    0.043234	    0.084103	   -0.012302	    0.047146	    0.034845	    0.064399	    0.066860	    0.131259	   -0.010026	    0.028561	    0.018535	   -0.061322	    0.035313	   -0.026008	   -0.106802	    0.009993	   -0.096809	   -0.064827	    0.068177	    0.003350	   -0.002289	    0.011922	    0.009633	    0.045738	    0.005844	    0.051583
     5.250	0	0	    0	    0.006168	    0.012284	    0.018452	   -0.024530	    0.055859	    0.031330	   -0.042317	    0.025533	   -0.016783	   -0.009450	    0.014083	    0.004634	   -0.027429	    0.040289	    0.012860	    0.000864	    0.038536	    0.039401	    0.071793	    0.080450	    0.152244	   -0.043562	    0.002355	   -0.041207	    0.010725	    0.048480	    0.059205	   -0.013177	    0.102371	    0.089194	   -0.020345	    0.043368	    0.023023	    0.002337	    0.055631	    0.057969	   -0.011423	    0.104367	    0.092944	    0.021113	    0.052855	    0.073968	   -0.002702	    0.007140	    0.004438	    0.059230	    0.050621	    0.109850	   -0.002564	    0.029056	    0.026491	   -0.044248	   -0.005548	   -0.049797	   -0.069910	   -0.042332	   -0.112242	   -0.069077	    0.014061	   -0.055016	    0.011594	    0.063775	    0.075369	    0.037365	    0.001312	    0.038677
     5.325	0	0	    0	    0.001288	    0.011504	    0.012791	   -0.024698	    0.054603	    0.029905	   -0.035988	    0.026458	   -0.009531	    0.000449	    0.012532	    0.012982	   -0.025998	    0.034617	    0.008619	    0.006303	    0.041127	    0.047431	    0.078504	    0.077534	    0.156038	   -0.041346	   -0.016057	   -0.057403	   -0.005649	    0.029060	    0.023411	   -0.030941	    0.050786	    0.019845	   -0.017800	    0.023436	    0.005636	   -0.010529	    0.042523	    0.031994	   -0.049908	    0.058620	    0.008713	    0.024548	    0.033544	    0.058092	   -0.004163	    0.009765	    0.005602	    0.043023	    0.038148	    0.081172	   -0.001328	    0.033558	    0.032230	   -0.035369	    0.032173	   -0.003196	   -0.061836	    0.015534	   -0.046302	   -0.036331	    0.042147	    0.005816	   -0.020722	    0.046506	    0.025784	    0.032073	   -0.009562	    0.022511
     5.400	0	0	    0	    0.001932	    0.012245	    0.014178	   -0.023313	    0.055849	    0.032535	   -0.038953	    0.031622	   -0.007331	   -0.000777	    0.015133	    0.014355	   -0.019797	    0.039334	    0.019537	    0.002948	    0.040607	    0.043555	    0.079222	    0.073234	    0.152457	   -0.032286	   -0.012145	   -0.044430	    0.018963	    0.024431	    0.043393	    0.012864	    0.077345	    0.090209	   -0.011833	    0.031421	    0.019589	    0.005862	    0.039671	    0.045533	    0.000754	    0.062059	    0.062813	    0.038846	    0.043721	    0.082567	    0.028079	    0.019183	    0.047262	    0.070504	    0.025913	    0.096418	   -0.005919	    0.036760	    0.030841	   -0.069083	    0.010271	   -0.058813	   -0.103425	   -0.020772	   -0.124197	   -0.069758	    0.046115	   -0.023643	    0.005579	    0.046852	    0.052431	    0.081616	    0.001835	    0.083452
     5.475	0	0	    0	    0.007282	    0.018319	    0.025602	   -0.031703	    0.057269	    0.025566	   -0.039367	    0.026048	   -0.013320	    0.005044	    0.005213	    0.010256	   -0.025743	    0.042539	    0.016797	    0.000984	    0.044854	    0.045838	    0.099496	    0.077988	    0.177484	   -0.008539	    0.016923	    0.008383	   -0.003296	    0.057044	    0.053747	   -0.079964	    0.087821	    0.007857	   -0.064066	    0.027959	   -0.036107	   -0.004898	    0.062024	    0.057127	   -0.089041	    0.104784	    0.015743	    0.016011	    0.051425	    0.067436	    0.039438	    0.067540	    0.106978	    0.086700	    0.070135	    0.156835	   -0.001591	    0.025159	    0.023569	    0.015957	    0.009977	    0.025934	    0.039272	   -0.024419	    0.014854	   -0.035679	    0.013483	   -0.022196	   -0.036201	    0.066632	    0.030431	    0.082720	    0.034681	    0.117402
     5.550	0	0	    0	    0.021882	    0.016544	    0.038426	   -0.038145	    0.052303	    0.014158	   -0.035044	    0.035997	    0.000953	    0.024078	    0.035250	    0.059327	   -0.061639	    0.050401	   -0.011239	    0.007618	    0.084138	    0.091756	    0.117312	    0.107178	    0.224490	   -0.022414	    0.026236	    0.003822	   -0.004574	    0.007419	    0.002845	   -0.110371	   -0.016536	   -0.126907	   -0.044658	   -0.025818	   -0.070476	   -0.097137	    0.012384	   -0.084753	   -0.112361	    0.013510	   -0.098850	    0.017981	    0.018039	    0.036020	    0.016767	    0.071786	    0.088553	    0.076246	    0.066316	    0.142562	   -0.032509	    0.022289	   -0.010220	   -0.002122	    0.089078	    0.086956	    0.016742	    0.128676	    0.145418	   -0.036423	    0.083065	    0.046641	   -0.083552	    0.013520	   -0.070032	    0.065095	    0.031161	    0.096256
     5.625	0	0	    0	    0.011391	    0.028070	    0.039461	   -0.026605	    0.047450	    0.020845	   -0.031940	    0.035062	    0.003122	    0.010017	    0.059065	    0.069082	   -0.018373	    0.048930	    0.030557	    0.007750	    0.046274	    0.054024	    0.086156	    0.090674	    0.176831	   -0.039470	    0.024077	   -0.015393	    0.019130	    0.006728	    0.025858	    0.019159	    0.040895	    0.060055	   -0.003081	    0.006911	    0.003830	   -0.008413	   -0.012343	   -0.020757	   -0.034686	    0.003780	   -0.030905	    0.031079	    0.020156	    0.051236	    0.002744	    0.037335	    0.040079	    0.060671	    0.045351	    0.106022	   -0.006579	    0.019900	    0.013321	   -0.066790	    0.032657	   -0.034134	   -0.104082	    0.011967	   -0.092115	   -0.060668	    0.070124	    0.009456	   -0.006433	   -0.003062	   -0.009495	    0.054245	    0.001593	    0.055838
     5.700	0	0	    0	    0.015371	    0.018377	    0.033748	   -0.011257	    0.054966	    0.043709	   -0.026113	    0.039772	    0.013658	    0.001745	    0.015858	    0.017603	   -0.011199	    0.041532	    0.030333	    0.018438	    0.039572	    0.058010	    0.086495	    0.076300	    0.162795	   -0.038079	    0.010099	   -0.027980	    0.025262	    0.052767	    0.078030	    0.016711	    0.111387	    0.128098	   -0.017395	    0.049797	    0.032402	    0.011473	    0.054442	    0.065915	    0.014480	    0.099965	    0.114444	    0.029107	    0.049940	    0.079048	    0.011389	    0.015630	    0.027019	    0.060314	    0.048273	    0.108587	    0.004191	    0.026603	    0.030793	   -0.055678	   -0.010899	   -0.066577	   -0.075269	   -0.049626	   -0.124895	   -0.062300	    0.013136	   -0.049164	    0.017163	    0.054108	    0.071270	    0.053530	   -0.001614	    0.051916
     5.775	0	0	    0	    0.023722	    0.019237	    0.042959	   -0.033840	    0.069372	    0.035532	   -0.014360	    0.050047	    0.035688	    0.028519	    0.014213	    0.042732	   -0.023492	    0.042070	    0.018577	    0.049686	    0.058052	    0.107738	    0.130131	    0.085860	    0.215991	   -0.051347	   -0.023033	   -0.074379	   -0.015769	    0.021703	    0.005934	   -0.113509	    0.039686	   -0.073824	   -0.074088	   -0.013254	   -0.087342	   -0.059641	    0.055943	   -0.003697	   -0.069570	    0.029594	   -0.039976	    0.020062	    0.021207	    0.041269	    0.029649	    0.035195	    0.064844	    0.035179	    0.033313	    0.068492	    0.003984	    0.040984	    0.044968	    0.037550	    0.064489	    0.102039	    0.088113	    0.079880	    0.167992	   -0.006634	    0.043285	    0.036651	   -0.046167	    0.041449	   -0.004718	    0.079840	    0.001475	    0.081316
     5.850	0	0	    0	    0.043036	    0.046460	    0.089496	   -0.015402	    0.055846	    0.040444	   -0.021089	    0.074967	    0.053879	    0.034577	    0.096309	    0.130885	   -0.031575	    0.062178	    0.030603	    0.011009	    0.100286	    0.111295	    0.102272	    0.114552	    0.216825	   -0.018106	   -0.028111	   -0.046217	    0.017894	    0.019494	    0.037388	   -0.005222	   -0.008666	   -0.013888	   -0.027292	    0.004417	   -0.022874	   -0.054190	   -0.009401	   -0.063591	   -0.034666	    0.006531	   -0.028135	    0.041219	    0.022449	    0.063668	    0.052982	    0.066601	    0.119583	    0.063658	    0.035331	    0.098989	   -0.005716	    0.022911	    0.017196	   -0.055666	    0.058027	    0.002361	   -0.102031	    0.051693	   -0.050338	   -0.027319	    0.084085	    0.056766	   -0.029142	    0.011632	   -0.017510	    0.097722	    0.023545	    0.121267
     5.925	0	0	    0	    0.021009	    0.028997	    0.050006	   -0.016530	    0.057975	    0.041445	   -0.015449	    0.052685	    0.037236	    0.010195	    0.040904	    0.051100	   -0.000305	    0.056935	    0.056630	    0.020152	    0.042080	    0.062232	    0.094896	    0.086000	    0.180896	   -0.020289	    0.019177	   -0.001112	    0.041265	    0.059506	    0.100772	    0.030158	    0.107225	    0.137383	   -0.031160	    0.054587	    0.023427	    0.017548	    0.060818	    0.078366	    0.015964	    0.076110	    0.092075	    0.034174	    0.061648	    0.095822	    0.024838	    0.074771	    0.099608	    0.079657	    0.055721	    0.135378	    0.008395	    0.031547	    0.039943	   -0.049220	   -0.004833	   -0.054053	   -0.068908	   -0.051695	   -0.120603	   -0.052793	    0.022756	   -0.030037	    0.019968	    0.047835	    0.067803	    0.075731	    0.027370	    0.103101
     6.000	0	0	    0	    0.032925	    0.024437	    0.057362	   -0.051278	    0.063475	    0.012197	   -0.025833	    0.084994	    0.059161	    0.042566	    0.026506	    0.069072	   -0.013740	    0.054005	    0.040266	    0.027954	    0.094912	    0.122866	    0.141446	    0.089334	    0.230780	   -0.043210	    0.016178	   -0.027032	   -0.008646	    0.020970	    0.012324	   -0.165432	    0.051057	   -0.114375	   -0.151408	   -0.021716	   -0.173124	   -0.053744	    0.054388	    0.000644	   -0.075960	    0.039513	   -0.036447	    0.004989	    0.021342	    0.026332	    0.051560	    0.052750	    0.104310	    0.072600	    0.050090	    0.122689	   -0.005041	    0.038333	    0.033292	    0.070958	    0.083590	    0.154549	    0.221008	    0.090556	    0.311564	   -0.001016	    0.031861	    0.030845	   -0.040901	    0.048709	    0.007808	    0.103496	    0.009161	    0.112656
     6.075	0	0	    0	    0.096839	    0.071927	    0.168766	   -0.094515	    0.066779	   -0.027736	   -0.060783	    0.143579	    0.082796	    0.061521	    0.194115	    0.255636	   -0.337684	    0.033056	   -0.304627	   -0.300912	    0.033019	   -0.267893	    0.191561	    0.155177	    0.346738	   -0.018294	   -0.001357	   -0.019650	    0.030301	    0.015643	    0.045944	   -0.241797	   -0.059086	   -0.300883	   -0.100249	   -0.034319	   -0.134568	   -0.155361	    0.018627	   -0.136735	   -0.309586	   -0.062808	   -0.372394	    0.030407	    0.023673	    0.054080	    0.086952	    0.081494	    0.168446	    0.097868	    0.072239	    0.170107	   -0.058902	    0.020523	   -0.038378	    0.046558	    0.129472	    0.176030	    0.241021	    0.259103	    0.500124	    0.005902	    0.102584	    0.108486	   -0.076720	   -0.000238	   -0.076959	    0.125006	    0.043868	    0.168874
     6.150	0	0	    0	    0.102187	    0.115320	    0.217507	   -0.106694	    0.070444	   -0.036250	   -0.073967	    0.201814	    0.127846	    0.074725	    0.312704	    0.387429	   -0.350094	   -0.078661	   -0.428755	   -0.325954	   -0.047494	   -0.373448	    0.197953	    0.188528	    0.386481	    0.016931	    0.021808	    0.038739	    0.055052	    0.022657	    0.077709	   -0.239020	   -0.082037	   -0.321057	   -0.102867	   -0.011147	   -0.114014	   -0.202080	    0.012864	   -0.189216	   -0.331121	   -0.149517	   -0.480639	    0.057128	    0.037317	    0.094445	    0.102463	    0.098107	    0.200570	    0.122229	    0.101413	    0.223642	   -0.049543	    0.008035	   -0.041508	    0.017045	    0.126395	    0.143440	    0.192450	    0.287204	    0.479654	   -0.011035	    0.120134	    0.109099	   -0.088439	   -0.008781	   -0.097220	    0.126573	    0.077918	    0.204490
     6.225	0	0	    0	    0.076630	    0.121729	    0.198359	   -0.026925	    0.039962	    0.013038	   -0.038119	    0.117059	    0.078940	    0.040514	    0.332323	    0.372837	   -0.224346	   -0.130116	   -0.354462	    0.019202	    0.008229	    0.027431	    0.131379	    0.165174	    0.296553	    0.029289	    0.038208	    0.067497	    0.036961	    0.047775	    0.084735	   -0.034008	   -0.095463	   -0.129471	   -0.050961	   -0.000247	   -0.051208	   -0.161424	   -0.012075	   -0.173498	   -0.070684	   -0.198689	   -0.269373	    0.076458	    0.032000	    0.108459	    0.091032	    0.088647	    0.179679	    0.103443	    0.108221	    0.211664	   -0.046522	    0.009397	   -0.037125	   -0.053807	    0.080529	    0.026721	   -0.089112	    0.160450	    0.071337	   -0.068519	    0.110791	    0.042273	   -0.055428	   -0.015481	   -0.070909	    0.107088	    0.055798	    0.162886
     6.300	0	0	    0	    0.037468	    0.057009	    0.094477	   -0.025415	    0.053819	    0.028404	   -0.030346	    0.054612	    0.024266	   -0.002989	    0.122981	    0.119992	   -0.010402	    0.085141	    0.074739	    0.002963	    0.042442	    0.045404	    0.113358	    0.116070	    0.229428	    0.003524	    0.055750	    0.059273	    0.032549	    0.041896	    0.074445	    0.044054	    0.078164	    0.122218	   -0.014047	    0.018288	    0.004241	   -0.013569	    0.095986	    0.082417	    0.039989	    0.055398	    0.095387	    0.093156	    0.082083	    0.175239	    0.070474	    0.079744	    0.150219	    0.084876	    0.087679	    0.172555	   -0.009864	   -0.006917	   -0.016780	   -0.078926	   -0.008651	   -0.087578	   -0.116162	   -0.018811	   -0.134973	   -0.072697	    0.027695	   -0.045001	    0.027677	    0.042778	    0.070455	    0.113241	    0.041013	    0.154254
     6.375	0	0	    0	    0.020611	    0.027609	    0.048220	   -0.015380	    0.061172	    0.045792	   -0.020467	    0.053619	    0.033152	    0.009620	    0.019770	    0.029390	   -0.003730	    0.058548	    0.054818	    0.015621	    0.040522	    0.056143	    0.102965	    0.085215	    0.188180	   -0.047515	    0.031696	   -0.015819	    0.035722	    0.066662	    0.102384	    0.047995	    0.118238	    0.166233	   -0.002128	    0.041490	    0.039362	    0.016133	    0.061063	    0.077196	    0.048690	    0.129980	    0.178670	    0.074156	    0.088194	    0.162350	    0.015361	    0.064474	    0.079835	    0.068335	    0.053750	    0.122084	    0.013077	    0.031601	    0.044677	   -0.070866	   -0.007705	   -0.078571	   -0.113201	   -0.042941	   -0.156142	   -0.065709	    0.000831	   -0.064878	    0.037352	    0.063784	    0.101136	    0.088154	    0.033486	    0.121640
     6.450	0	0	    0	    0.022060	    0.022850	    0.044910	   -0.016396	    0.065802	    0.049406	   -0.020767	    0.055816	    0.035049	    0.017639	    0.013593	    0.031233	   -0.002360	    0.052621	    0.050261	    0.025404	    0.046963	    0.072367	    0.106021	    0.062976	    0.168997	   -0.045899	   -0.018806	   -0.064704	    0.024324	    0.063014	    0.087338	   -0.007248	    0.133883	    0.126635	   -0.047076	    0.053479	    0.006403	    0.022624	    0.065737	    0.088361	    0.027806	    0.131875	    0.159681	    0.038445	    0.071504	    0.109949	    0.001320	   -0.006913	   -0.005593	    0.057330	    0.048750	    0.106079	    0.018113	    0.031827	    0.049939	   -0.009102	   -0.010175	   -0.019276	   -0.006978	   -0.054250	   -0.061228	   -0.044233	   -0.001177	   -0.045410	    0.031121	    0.068389	    0.099510	    0.053028	    0.004444	    0.057472
     6.525	0	0	    0	    0.037892	    0.017034	    0.054926	   -0.040397	    0.067755	    0.027357	   -0.014941	    0.063672	    0.048731	    0.059421	    0.027705	    0.087126	   -0.021717	    0.051524	    0.029806	    0.013660	    0.099667	    0.113328	    0.159299	    0.080948	    0.240247	   -0.056841	   -0.029098	   -0.085939	    0.007093	    0.011986	    0.019078	   -0.122253	    0.019184	   -0.103069	   -0.122404	   -0.020472	   -0.142876	   -0.037953	    0.033923	   -0.004030	   -0.061259	    0.039029	   -0.022230	    0.026937	    0.018389	    0.045326	    0.007093	   -0.001537	    0.005557	    0.047027	    0.034183	    0.081210	   -0.011084	    0.038321	    0.027237	    0.075218	    0.095558	    0.170776	    0.189805	    0.121560	    0.311365	    0.006480	    0.052874	    0.059354	   -0.029990	    0.047247	    0.017257	    0.043531	   -0.017255	    0.026277
     6.600	0	0	    0	    0.086673	    0.066070	    0.152743	   -0.031194	    0.057641	    0.026447	   -0.018682	    0.103155	    0.084473	    0.063283	    0.156633	    0.219915	   -0.171215	    0.057788	   -0.113427	   -0.016345	    0.036334	    0.019988	    0.128875	    0.139079	    0.267954	   -0.052032	   -0.043698	   -0.095730	    0.019343	    0.017513	    0.036856	   -0.098073	   -0.045823	   -0.143896	   -0.024630	   -0.023272	   -0.047902	   -0.097158	    0.005169	   -0.091989	   -0.107733	   -0.046493	   -0.154226	    0.019251	    0.017945	    0.037196	    0.033613	   -0.005690	    0.027923	    0.042954	    0.040220	    0.083174	   -0.016750	    0.019810	    0.003060	    0.008996	    0.136591	    0.145587	    0.022147	    0.221453	    0.243601	    0.001293	    0.102280	    0.103573	   -0.029481	    0.014899	   -0.014581	    0.059979	   -0.035072	    0.024907
     6.675	0	0	    0	    0.025596	    0.041657	    0.067253	   -0.018443	    0.058026	    0.039583	   -0.024334	    0.077693	    0.053359	    0.054538	    0.131984	    0.186521	    0.004803	    0.080301	    0.085104	    0.013706	    0.052332	    0.066038	    0.111701	    0.095616	    0.207318	   -0.006837	   -0.044168	   -0.051004	    0.048684	    0.011605	    0.060289	    0.028965	    0.043391	    0.072356	   -0.020709	    0.025853	    0.005144	    0.052330	    0.048059	    0.100389	    0.017316	    0.007557	    0.024873	    0.080023	    0.034931	    0.114954	    0.056633	    0.069822	    0.126454	    0.092038	    0.043079	    0.135118	   -0.008008	    0.030895	    0.022887	   -0.056185	    0.048475	   -0.007710	   -0.101788	    0.022575	   -0.079214	   -0.037855	    0.061521	    0.023667	    0.024660	    0.029476	    0.054136	    0.106503	    0.026642	    0.133145
     6.750	0	0	    0	    0.025613	    0.023278	    0.048891	   -0.011749	    0.060960	    0.049211	   -0.017096	    0.053570	    0.036475	    0.017902	    0.035065	    0.052967	    0.003478	    0.065319	    0.068797	    0.018611	    0.048177	    0.066788	    0.090070	    0.081477	    0.171547	   -0.032384	    0.032182	   -0.000202	    0.049412	    0.070485	    0.119897	    0.049885	    0.115788	    0.165673	   -0.008714	    0.047532	    0.038818	    0.028660	    0.065615	    0.094275	    0.057040	    0.111087	    0.168127	    0.068676	    0.079837	    0.148514	   -0.017907	    0.029670	    0.011763	    0.063420	    0.067877	    0.131297	    0.012420	    0.040474	    0.052894	   -0.089198	    0.004169	   -0.085029	   -0.121333	   -0.036854	   -0.158187	   -0.061370	    0.016218	   -0.045151	    0.039348	    0.060087	    0.099435	    0.069341	    0.012920	    0.082262
     6.825	0	0	    0	    0.030780	    0.030216	    0.060996	   -0.005864	    0.065114	    0.059251	   -0.010777	    0.056423	    0.045647	    0.024580	    0.016158	    0.040739	    0.005033	    0.053767	    0.058801	    0.024739	    0.055364	    0.080103	    0.079889	    0.066049	    0.145937	   -0.022333	   -0.002005	   -0.024338	    0.065877	    0.081553	    0.147430	    0.040196	    0.122029	    0.162225	    0.001198	    0.050044	    0.051242	    0.027563	    0.062932	    0.090495	    0.060383	    0.131314	    0.191698	    0.065734	    0.082992	    0.148727	   -0.017910	   -0.021407	   -0.039318	    0.056764	    0.045212	    0.101976	   -0.000931	    0.034170	    0.033239	   -0.091541	   -0.013637	   -0.105178	   -0.119882	   -0.040569	   -0.160452	   -0.062817	   -0.003941	   -0.066758	    0.037482	    0.072221	    0.109703	    0.065347	    0.005485	    0.070831
     6.900	0	0	    0	    0.025245	    0.028657	    0.053902	   -0.005548	    0.068964	    0.063416	   -0.009027	    0.060146	    0.051119	    0.026059	    0.020051	    0.046110	    0.003966	    0.056883	    0.060849	    0.024024	    0.058521	    0.082546	    0.081521	    0.058961	    0.140482	   -0.038415	   -0.007042	   -0.045457	    0.045582	    0.085935	    0.131518	    0.018512	    0.115638	    0.134149	   -0.021304	    0.059411	    0.038107	    0.028813	    0.072501	    0.101314	    0.047166	    0.139302	    0.186467	    0.051843	    0.073498	    0.125341	   -0.014447	   -0.023450	   -0.037897	    0.055816	    0.040949	    0.096765	   -0.012155	    0.026134	    0.013979	   -0.073143	   -0.018293	   -0.091436	   -0.086143	   -0.049257	   -0.135401	   -0.064213	   -0.004209	   -0.068421	    0.033832	    0.069459	    0.103291	    0.055935	    0.001863	    0.057798
     6.975	0	0	    0	    0.022671	    0.024585	    0.047256	   -0.031977	    0.066399	    0.034421	   -0.004115	    0.067597	    0.063482	    0.040632	    0.029491	    0.070123	   -0.018716	    0.055908	    0.037191	    0.060596	    0.044275	    0.104871	    0.126841	    0.065230	    0.192071	   -0.049643	   -0.024630	   -0.074273	   -0.011063	    0.048127	    0.037064	   -0.142699	    0.061990	   -0.080710	   -0.095580	   -0.000528	   -0.096108	   -0.033201	    0.056170	    0.022969	   -0.074853	    0.088274	    0.013421	    0.010490	    0.035489	    0.045978	    0.043120	   -0.002887	    0.040232	    0.061052	    0.025786	    0.086838	   -0.013423	    0.036796	    0.023373	    0.044855	    0.044108	    0.088963	    0.144764	    0.040000	    0.184763	   -0.015174	    0.009853	   -0.005321	   -0.019431	    0.054713	    0.035282	    0.101782	   -0.013910	    0.087873
     7.050	0	0	    0	    0.073217	    0.043620	    0.116837	   -0.045075	    0.052566	    0.007492	   -0.024872	    0.107840	    0.082968	    0.051290	    0.122000	    0.173290	   -0.173506	    0.127330	   -0.046176	   -0.112507	    0.103844	   -0.008663	    0.179416	    0.124872	    0.304288	   -0.019970	   -0.017564	   -0.037534	    0.039534	    0.018252	    0.057785	   -0.173002	   -0.055446	   -0.228447	   -0.065153	   -0.036270	   -0.101423	   -0.126203	    0.004322	   -0.121882	   -0.162377	    0.005686	   -0.156691	    0.043616	    0.019160	    0.062777	    0.056881	    0.053679	    0.110559	    0.096422	    0.077460	    0.173882	   -0.038971	    0.015825	   -0.023146	    0.048927	    0.119945	    0.168872	    0.164232	    0.227069	    0.391300	    0.019172	    0.081504	    0.100676	   -0.042683	    0.015274	   -0.027409	    0.105360	    0.031958	    0.137318
     7.125	0	0	    0	    0.039193	    0.075755	    0.114948	   -0.010413	    0.058631	    0.048218	   -0.019133	    0.100463	    0.081330	    0.062458	    0.170243	    0.232700	   -0.008100	   -0.020163	   -0.028263	    0.009324	    0.089785	    0.099109	    0.124672	    0.105724	    0.230396	   -0.024297	    0.002558	   -0.021739	    0.042125	    0.031974	    0.074100	    0.024778	   -0.001941	    0.022837	   -0.025897	    0.034841	    0.008943	   -0.024982	   -0.026104	   -0.051085	   -0.009973	   -0.015770	   -0.025743	    0.064279	    0.019431	    0.083710	    0.045679	    0.051098	    0.096777	    0.062226	    0.070529	    0.132755	    0.007337	    0.029230	    0.036566	   -0.045622	    0.061418	    0.015796	   -0.091098	    0.059141	   -0.031957	   -0.037269	    0.105179	    0.067910	    0.006159	    0.008026	    0.014185	    0.095219	    0.011035	    0.106254
     7.200	0	0	    0	    0.035438	    0.026599	    0.062037	    0.007024	    0.058869	    0.065893	   -0.000455	    0.058526	    0.058071	    0.023549	    0.051570	    0.075119	    0.014210	    0.069199	    0.083409	    0.037797	    0.050529	    0.088326	    0.109626	    0.085825	    0.195450	   -0.019969	    0.021896	    0.001926	    0.074533	    0.082809	    0.157343	    0.039886	    0.117785	    0.157671	   -0.017987	    0.061086	    0.043099	    0.027154	    0.068388	    0.095542	    0.061033	    0.098175	    0.159207	    0.061220	    0.079989	    0.141209	    0.024073	    0.051189	    0.075262	    0.074947	    0.057964	    0.132911	    0.028147	    0.043808	    0.071954	   -0.034395	    0.006638	   -0.027757	   -0.057400	   -0.042073	   -0.099473	   -0.041016	    0.020814	   -0.020202	    0.060419	    0.064236	    0.124655	    0.078511	    0.016410	    0.094920
     7.275	0	0	    0	    0.040295	    0.027590	    0.067885	   -0.015272	    0.071901	    0.056629	    0.007126	    0.082704	    0.089830	    0.064626	    0.040675	    0.105301	    0.011174	    0.063273	    0.074447	    0.079184	    0.064740	    0.143924	    0.145591	    0.082715	    0.228306	   -0.038024	    0.003916	   -0.034108	    0.008171	    0.063925	    0.072096	   -0.101286	    0.076405	   -0.024881	   -0.084845	    0.004899	   -0.079946	   -0.007233	    0.056162	    0.048929	   -0.026015	    0.064880	    0.038865	    0.024360	    0.036414	    0.060774	    0.015804	    0.012106	    0.027910	    0.059372	    0.051085	    0.110458	    0.022634	    0.059099	    0.081733	    0.076044	    0.073202	    0.149246	    0.182280	    0.062307	    0.244586	    0.020936	    0.024683	    0.045618	    0.012685	    0.064527	    0.077212	    0.061304	   -0.006981	    0.054323
     7.350	0	0	    0	    0.097489	    0.046080	    0.143569	   -0.057485	    0.071715	    0.014230	   -0.044758	    0.131343	    0.086585	    0.083087	    0.139987	    0.223074	   -0.246585	    0.140507	   -0.106079	   -0.230058	    0.095021	   -0.135038	    0.196674	    0.133344	    0.330018	   -0.046187	   -0.029200	   -0.075387	    0.040514	    0.022530	    0.063044	   -0.174337	   -0.024633	   -0.198970	   -0.088924	   -0.016118	   -0.105043	   -0.103461	    0.013129	   -0.090332	   -0.192291	   -0.002580	   -0.194872	    0.047878	    0.013905	    0.061784	    0.035039	    0.004491	    0.039531	    0.058176	    0.048764	    0.106940	   -0.024720	    0.046598	    0.021878	    0.069754	    0.140267	    0.210020	    0.241134	    0.244206	    0.485340	    0.039554	    0.094814	    0.134367	   -0.019692	    0.020643	    0.000950	    0.077023	   -0.016185	    0.060838
     7.425	0	0	    0	    0.080005	    0.096646	    0.176652	    0.004874	    0.042798	    0.047672	    0.009449	    0.107369	    0.116818	    0.061245	    0.229833	    0.291078	   -0.172123	   -0.098076	   -0.270199	    0.059696	    0.032147	    0.091843	    0.140943	    0.153553	    0.294497	   -0.019511	   -0.033426	   -0.052937	    0.047191	    0.033795	    0.080986	   -0.000955	   -0.061758	   -0.062713	   -0.008695	    0.025525	    0.016831	   -0.100327	   -0.001079	   -0.101406	   -0.024900	   -0.116617	   -0.141517	    0.065922	    0.024200	    0.090122	    0.113112	    0.064605	    0.177717	    0.112836	    0.059482	    0.172318	   -0.006245	    0.013280	    0.007035	   -0.033487	    0.113440	    0.079953	   -0.080252	    0.190009	    0.109757	   -0.011801	    0.117038	    0.105237	   -0.012387	    0.007922	   -0.004465	    0.140486	    0.038211	    0.178696
     7.500	0	0	    0	    0.043553	    0.032540	    0.076093	   -0.012072	    0.055140	    0.043068	   -0.012112	    0.069823	    0.057711	    0.035443	    0.120768	    0.156211	    0.018347	    0.089680	    0.108027	    0.027314	    0.048258	    0.075571	    0.124866	    0.103222	    0.228088	    0.051032	    0.039524	    0.090556	    0.089109	    0.067807	    0.156916	    0.053893	    0.087183	    0.141077	    0.001535	    0.034653	    0.036188	    0.036040	    0.090377	    0.126416	    0.053718	    0.060546	    0.114264	    0.103865	    0.067953	    0.171817	    0.083279	    0.073081	    0.156360	    0.122596	    0.111346	    0.233942	    0.005376	    0.026128	    0.031504	   -0.063134	    0.030176	   -0.032959	   -0.112334	   -0.007676	   -0.120010	   -0.043899	    0.036354	   -0.007545	    0.048156	    0.046076	    0.094231	    0.116124	    0.067779	    0.183904
     7.575	0	0	    0	    0.040459	    0.035006	    0.075465	   -0.005486	    0.056458	    0.050972	   -0.003236	    0.061224	    0.057988	    0.033788	    0.028851	    0.062639	    0.016552	    0.064011	    0.080563	    0.032496	    0.049683	    0.082179	    0.110305	    0.081689	    0.191993	    0.008466	    0.065876	    0.074342	    0.072614	    0.097630	    0.170244	    0.047904	    0.123475	    0.171379	   -0.000349	    0.059664	    0.059316	    0.038582	    0.068890	    0.107472	    0.060370	    0.119506	    0.179876	    0.072473	    0.085360	    0.157833	    0.025929	    0.060301	    0.086230	    0.090127	    0.088812	    0.178939	    0.015299	    0.046079	    0.061378	   -0.066877	    0.007144	   -0.059733	   -0.110901	   -0.037442	   -0.148343	   -0.050270	    0.006400	   -0.043869	    0.052232	    0.067778	    0.120010	    0.081174	    0.034588	    0.115762
     7.650	0	0	    0	    0.034378	    0.032774	    0.067152	   -0.011073	    0.061243	    0.050169	    0.003405	    0.063858	    0.067263	    0.042391	    0.027713	    0.070104	    0.013221	    0.063570	    0.076791	    0.035122	    0.055058	    0.090181	    0.117521	    0.069058	    0.186578	   -0.029629	    0.034996	    0.005367	    0.025874	    0.077718	    0.103592	   -0.021627	    0.115539	    0.093912	   -0.048840	    0.050450	    0.001610	    0.024673	    0.078070	    0.102743	    0.003550	    0.112813	    0.116363	    0.031026	    0.056956	    0.087983	    0.011982	    0.031084	    0.043067	    0.069173	    0.068179	    0.137353	    0.020734	    0.040238	    0.060972	    0.013169	    0.007111	    0.020280	    0.027352	   -0.036118	   -0.008766	   -0.026962	    0.010717	   -0.016245	    0.030835	    0.068734	    0.099568	    0.060445	    0.011030	    0.071475
     7.725	0	0	    0	    0.048203	    0.022716	    0.070919	   -0.025937	    0.057845	    0.031909	    0.002714	    0.080549	    0.083263	    0.082613	    0.065926	    0.148540	   -0.019979	    0.092512	    0.072533	    0.032356	    0.116787	    0.149144	    0.153187	    0.096940	    0.250128	   -0.032011	    0.003742	   -0.028270	    0.023844	    0.020749	    0.044593	   -0.108303	    0.011305	   -0.096998	   -0.047067	   -0.019800	   -0.066867	   -0.046883	    0.059279	    0.012396	   -0.062747	    0.051473	   -0.011273	    0.042523	    0.014948	    0.057471	    0.069898	    0.039932	    0.109831	    0.083534	    0.045247	    0.128782	   -0.008771	    0.048365	    0.039594	    0.022649	    0.114568	    0.137217	    0.057888	    0.168502	    0.226390	    0.005579	    0.064850	    0.070429	   -0.027997	    0.044873	    0.016876	    0.108475	    0.010894	    0.119369
     7.800	0	0	    0	    0.036279	    0.042350	    0.078629	   -0.025980	    0.052137	    0.026157	   -0.010349	    0.076148	    0.065799	    0.054307	    0.114138	    0.168446	    0.018775	    0.078402	    0.097177	    0.020976	    0.063797	    0.084773	    0.112641	    0.100870	    0.213511	    0.024081	    0.025138	    0.049220	    0.039280	    0.023231	    0.062511	    0.013400	    0.045497	    0.058897	   -0.012784	    0.023250	    0.010466	    0.021084	    0.011780	    0.032864	   -0.041945	    0.044374	    0.002428	    0.063335	    0.023513	    0.086848	    0.077604	    0.072005	    0.149609	    0.108299	    0.078828	    0.187127	   -0.010983	    0.039709	    0.028726	   -0.066380	    0.046463	   -0.019917	   -0.111804	    0.018876	   -0.092928	   -0.053152	    0.074361	    0.021208	    0.014516	    0.026257	    0.040773	    0.111228	    0.041001	    0.152229
     7.875	0	0	    0	    0.032760	    0.029278	    0.062038	   -0.017201	    0.052834	    0.035633	   -0.004337	    0.066435	    0.062097	    0.029449	    0.044039	    0.073487	    0.011986	    0.064498	    0.076484	    0.021012	    0.044067	    0.065080	    0.108144	    0.077710	    0.185854	    0.004140	    0.051906	    0.056045	    0.047081	    0.067642	    0.114723	    0.033727	    0.113050	    0.146777	   -0.002246	    0.053459	    0.051213	    0.025403	    0.070833	    0.096236	    0.040610	    0.092803	    0.133413	    0.060660	    0.063535	    0.124196	    0.034215	    0.066949	    0.101163	    0.088624	    0.087475	    0.176099	    0.002165	    0.037841	    0.040006	   -0.075401	    0.008721	   -0.066679	   -0.120112	   -0.034060	   -0.154171	   -0.065906	    0.021194	   -0.044712	    0.042038	    0.056398	    0.098436	    0.087974	    0.030154	    0.118128
     7.950	0	0	    0	    0.033777	    0.027237	    0.061014	   -0.004554	    0.059337	    0.054783	    0.004086	    0.067258	    0.071344	    0.039634	    0.020507	    0.060141	    0.015359	    0.060330	    0.075690	    0.038916	    0.048698	    0.087614	    0.126628	    0.072044	    0.198673	   -0.021006	    0.031977	    0.010971	    0.028838	    0.068471	    0.097310	   -0.022437	    0.113498	    0.091061	   -0.040297	    0.053090	    0.012793	    0.033775	    0.070491	    0.104266	    0.005580	    0.103809	    0.109389	    0.046353	    0.053048	    0.099401	    0.043907	    0.053853	    0.097760	    0.083362	    0.068598	    0.151960	    0.016106	    0.043083	    0.059189	    0.007661	    0.010450	    0.018110	    0.014509	   -0.037883	   -0.023374	   -0.022786	    0.009067	   -0.013718	    0.034508	    0.067798	    0.102306	    0.087786	    0.015471	    0.103256
     8.025	0	0	    0	    0.042345	    0.027030	    0.069375	   -0.002337	    0.062438	    0.060100	    0.015137	    0.076324	    0.091460	    0.072535	    0.046645	    0.119180	    0.005713	    0.070946	    0.076658	    0.059510	    0.102141	    0.161651	    0.150287	    0.102054	    0.252341	   -0.020733	    0.018413	   -0.002320	    0.027622	    0.030196	    0.057818	   -0.054678	    0.032536	   -0.022142	   -0.019772	    0.002657	   -0.017115	   -0.022009	    0.040684	    0.018675	   -0.018203	    0.040079	    0.021876	    0.049901	    0.026018	    0.075920	    0.043114	    0.057636	    0.100750	    0.076648	    0.060162	    0.136810	    0.011548	    0.054921	    0.066469	    0.011090	    0.099973	    0.111063	    0.023519	    0.132133	    0.155652	    0.018857	    0.068556	    0.087413	   -0.008341	    0.036162	    0.027821	    0.084553	    0.015016	    0.099569
     8.100	0	0	    0	    0.036862	    0.033909	    0.070771	   -0.004868	    0.058563	    0.053695	    0.002020	    0.071909	    0.073928	    0.045614	    0.085913	    0.131527	    0.009018	    0.091080	    0.100099	    0.038822	    0.059967	    0.098789	    0.116696	    0.091636	    0.208332	   -0.017188	    0.018426	    0.001238	    0.042558	    0.032867	    0.075425	    0.040518	    0.066433	    0.106950	    0.007195	    0.031337	    0.038532	    0.031751	    0.026132	    0.057882	    0.034606	    0.015661	    0.050267	    0.063218	    0.031959	    0.095177	    0.043404	    0.060587	    0.103991	    0.080291	    0.053268	    0.133559	    0.013030	    0.046102	    0.059132	   -0.054075	    0.044897	   -0.009178	   -0.090938	    0.014360	   -0.076578	   -0.029932	    0.069614	    0.039683	    0.046208	    0.021506	    0.067714	    0.093522	    0.010148	    0.103670
     8.175	0	0	    0	    0.036106	    0.023107	    0.059213	    0.003145	    0.058381	    0.061526	    0.007104	    0.069369	    0.076474	    0.037780	    0.032333	    0.070113	    0.024646	    0.063417	    0.088063	    0.043297	    0.048172	    0.091469	    0.108150	    0.077989	    0.186139	   -0.029638	    0.024586	   -0.005052	    0.049007	    0.063570	    0.112577	    0.054244	    0.116582	    0.170826	    0.012595	    0.059294	    0.071889	    0.045109	    0.068185	    0.113294	    0.066436	    0.102350	    0.168785	    0.057145	    0.058745	    0.115891	    0.009297	    0.039263	    0.048560	    0.076380	    0.064989	    0.141368	    0.019054	    0.039424	    0.058479	   -0.065100	    0.016153	   -0.048946	   -0.102042	   -0.024911	   -0.126954	   -0.038150	    0.017666	   -0.020484	    0.058635	    0.058883	    0.117517	    0.073239	    0.011496	    0.084735
     8.250	0	0	    0	    0.036237	    0.026888	    0.063125	    0.009543	    0.063410	    0.072953	    0.011411	    0.070900	    0.082312	    0.037488	    0.023162	    0.060650	    0.030081	    0.064051	    0.094131	    0.043885	    0.054417	    0.098302	    0.100758	    0.068514	    0.169273	   -0.044722	   -0.000845	   -0.045568	    0.056348	    0.063205	    0.119554	    0.057642	    0.124036	    0.181678	    0.019116	    0.070124	    0.089239	    0.052954	    0.077658	    0.130612	    0.081108	    0.115051	    0.196159	    0.064344	    0.053432	    0.117776	    0.008440	   -0.001124	    0.007316	    0.070828	    0.053191	    0.124019	    0.017493	    0.041517	    0.059010	   -0.071935	    0.007343	   -0.064592	   -0.103279	   -0.030443	   -0.133721	   -0.041809	    0.007642	   -0.034166	    0.061443	    0.070962	    0.132405	    0.067906	    0.001305	    0.069211
     8.325	0	0	    0	    0.038332	    0.026031	    0.064364	    0.010293	    0.065826	    0.076119	    0.012425	    0.071309	    0.083735	    0.037056	    0.019815	    0.056871	    0.030629	    0.066175	    0.096804	    0.043750	    0.058500	    0.102250	    0.095740	    0.064325	    0.160065	   -0.040423	   -0.022189	   -0.062612	    0.056431	    0.071023	    0.127454	    0.053570	    0.125357	    0.178928	    0.016312	    0.076169	    0.092481	    0.054582	    0.083760	    0.138342	    0.082426	    0.127168	    0.209594	    0.060776	    0.061269	    0.122046	    0.004809	   -0.009950	   -0.005141	    0.068303	    0.051249	    0.119552	    0.002877	    0.031669	    0.034546	   -0.070979	    0.000442	   -0.070537	   -0.101419	   -0.034650	   -0.136069	   -0.044858	    0.004348	   -0.040509	    0.057124	    0.067473	    0.124597	    0.062858	    0.001787	    0.064645
     8.400	0	0	    0	    0.035019	    0.025615	    0.060634	    0.004061	    0.066292	    0.070353	    0.005840	    0.066044	    0.071884	    0.045016	    0.020307	    0.065323	    0.023660	    0.064433	    0.088093	    0.040725	    0.059808	    0.100533	    0.100908	    0.067837	    0.168745	   -0.043963	   -0.027296	   -0.071258	    0.040218	    0.071867	    0.112085	    0.016740	    0.113115	    0.129856	   -0.005274	    0.063748	    0.058474	    0.041316	    0.082205	    0.123521	    0.046522	    0.127017	    0.173539	    0.050339	    0.051803	    0.102142	    0.022159	   -0.015749	    0.006410	    0.057708	    0.048768	    0.106475	    0.001013	    0.023786	    0.024799	   -0.029248	    0.005749	   -0.023499	   -0.049074	   -0.024790	   -0.073864	   -0.032931	    0.004009	   -0.028922	    0.044311	    0.066003	    0.110314	    0.064869	   -0.009318	    0.055552
     8.475	0	0	    0	    0.037472	    0.019120	    0.056592	   -0.020748	    0.066980	    0.046232	    0.002886	    0.070351	    0.073237	    0.051666	    0.033879	    0.085546	    0.016350	    0.057163	    0.073513	    0.090380	    0.062340	    0.152720	    0.148804	    0.068442	    0.217246	   -0.043039	   -0.032521	   -0.075560	    0.001635	    0.033687	    0.035323	   -0.169187	    0.057793	   -0.111394	   -0.071637	    0.008093	   -0.063545	   -0.013623	    0.061813	    0.048190	   -0.019836	    0.050959	    0.031124	    0.022283	    0.030120	    0.052403	    0.039516	    0.021234	    0.060751	    0.057234	    0.037170	    0.094404	   -0.018579	    0.041269	    0.022689	    0.051854	    0.075188	    0.127042	    0.177729	    0.071933	    0.249662	    0.017414	    0.035638	    0.053053	   -0.009860	    0.048843	    0.038983	    0.089843	   -0.003623	    0.086220
     8.550	0	0	    0	    0.086868	    0.050649	    0.137517	   -0.054481	    0.055729	    0.001248	   -0.018772	    0.097409	    0.078636	    0.076755	    0.118899	    0.195654	   -0.167964	    0.144641	   -0.023323	   -0.147424	    0.115979	   -0.031446	    0.192607	    0.129886	    0.322493	   -0.030104	   -0.030648	   -0.060752	    0.037387	    0.017234	    0.054621	   -0.221907	   -0.072754	   -0.294662	   -0.073371	   -0.030281	   -0.103652	   -0.121659	    0.011337	   -0.110321	   -0.184597	    0.025408	   -0.159188	    0.052392	    0.010194	    0.062587	    0.122276	    0.058352	    0.180628	    0.108060	    0.058258	    0.166318	   -0.059584	    0.018309	   -0.041275	    0.042586	    0.130747	    0.173333	    0.201390	    0.250689	    0.452079	    0.024409	    0.110743	    0.135152	   -0.058648	    0.020821	   -0.037828	    0.162030	    0.039872	    0.201902
     8.625	0	0	    0	    0.058759	    0.084565	    0.143324	   -0.023211	    0.062584	    0.039373	   -0.010946	    0.115362	    0.104416	    0.071277	    0.178316	    0.249593	   -0.069815	   -0.057393	   -0.127207	    0.044480	    0.093738	    0.138218	    0.135406	    0.141588	    0.276994	    0.030647	    0.014782	    0.045429	    0.024099	    0.032854	    0.056954	   -0.007821	   -0.040994	   -0.048815	   -0.026609	    0.037435	    0.010826	   -0.067588	   -0.030325	   -0.097913	   -0.017428	   -0.096774	   -0.114202	    0.050853	    0.013262	    0.064115	    0.129002	    0.087129	    0.216131	    0.136894	    0.123333	    0.260226	   -0.021864	    0.015927	   -0.005937	   -0.061557	    0.089508	    0.027952	   -0.091035	    0.127716	    0.036681	   -0.027661	    0.125146	    0.097485	   -0.031918	   -0.006581	   -0.038499	    0.160888	    0.099076	    0.259964
     8.700	0	0	    0	    0.023567	    0.032108	    0.055675	   -0.012196	    0.054451	    0.042255	   -0.003013	    0.070704	    0.067691	    0.029083	    0.077319	    0.106401	    0.013729	    0.070772	    0.084500	    0.023556	    0.034784	    0.058340	    0.118745	    0.096300	    0.215046	    0.025566	    0.030681	    0.056247	    0.053323	    0.051282	    0.104605	    0.028422	    0.082197	    0.110619	   -0.003181	    0.050269	    0.047088	    0.026524	    0.072367	    0.098891	    0.039461	    0.046630	    0.086091	    0.083047	    0.039366	    0.122413	    0.071156	    0.082858	    0.154014	    0.114549	    0.130911	    0.245460	   -0.023103	    0.025935	    0.002832	   -0.079298	    0.027833	   -0.051465	   -0.114878	   -0.007404	   -0.122283	   -0.052729	    0.036362	   -0.016367	    0.026257	    0.034599	    0.060856	    0.100066	    0.079619	    0.179684
     8.775	0	0	    0	    0.026186	    0.023395	    0.049581	    0.006907	    0.059488	    0.066395	    0.005183	    0.067858	    0.073041	    0.028786	    0.025244	    0.054030	    0.021704	    0.060739	    0.082443	    0.035766	    0.039454	    0.075220	    0.108432	    0.072941	    0.181373	   -0.032439	    0.035744	    0.003305	    0.044857	    0.065838	    0.110695	    0.043566	    0.113204	    0.156771	    0.014781	    0.060699	    0.075480	    0.037839	    0.070614	    0.108453	    0.066989	    0.104675	    0.171664	    0.071635	    0.055926	    0.127561	    0.005665	    0.043127	    0.048792	    0.074323	    0.079952	    0.154276	   -0.000887	    0.030210	    0.029324	   -0.075008	    0.008919	   -0.066089	   -0.106641	   -0.030376	   -0.137017	   -0.055324	    0.006615	   -0.048709	    0.047858	    0.055267	    0.103125	    0.074385	    0.026692	    0.101078
     8.850	0	0	    0	    0.027485	    0.017559	    0.045043	    0.015222	    0.069600	    0.084822	    0.010700	    0.073214	    0.083914	    0.031191	    0.019445	    0.050636	    0.029144	    0.061576	    0.090720	    0.045642	    0.051192	    0.096834	    0.093091	    0.057706	    0.150797	   -0.076205	   -0.011978	   -0.088183	    0.046182	    0.062859	    0.109040	    0.045046	    0.115328	    0.160374	    0.018961	    0.072878	    0.091839	    0.048595	    0.077337	    0.125931	    0.080135	    0.122752	    0.202886	    0.051030	    0.059214	    0.110245	   -0.010735	   -0.028455	   -0.039189	    0.055426	    0.041291	    0.096717	   -0.006595	    0.027985	    0.021390	   -0.073619	    0.002145	   -0.071474	   -0.105694	   -0.033350	   -0.139044	   -0.050394	    0.007427	   -0.042968	    0.058382	    0.061588	    0.119970	    0.056556	   -0.013178	    0.043378
     8.925	0	0	    0	    0.038339	    0.018727	    0.057067	    0.012157	    0.074250	    0.086407	    0.001299	    0.074859	    0.076158	    0.032365	    0.019008	    0.051373	    0.029790	    0.063022	    0.092812	    0.045472	    0.056452	    0.101924	    0.111127	    0.058744	    0.169871	   -0.043277	   -0.050226	   -0.093503	    0.041577	    0.066210	    0.107786	    0.007808	    0.124630	    0.132438	   -0.003041	    0.076930	    0.073889	    0.052289	    0.080519	    0.132808	    0.070110	    0.131391	    0.201501	    0.070871	    0.061015	    0.131886	    0.064639	    0.019806	    0.084446	    0.079143	    0.035530	    0.114673	   -0.006470	    0.024239	    0.017769	   -0.032101	   -0.002678	   -0.034779	   -0.072897	   -0.045914	   -0.118810	   -0.045803	    0.003255	   -0.042549	    0.055915	    0.074532	    0.130447	    0.111535	    0.020589	    0.132124
     9.000	0	0	    0	    0.042381	    0.030910	    0.073291	   -0.020508	    0.074239	    0.053731	    0.002269	    0.077249	    0.079517	    0.050870	    0.028110	    0.078980	    0.016916	    0.050881	    0.067797	    0.099963	    0.059871	    0.159835	    0.154748	    0.075386	    0.230134	   -0.032694	   -0.008943	   -0.041638	    0.006355	    0.032683	    0.039039	   -0.151756	    0.044055	   -0.107702	   -0.063028	    0.013355	   -0.049673	   -0.019902	    0.072181	    0.052279	   -0.014048	    0.045860	    0.031811	    0.037943	    0.033096	    0.071039	    0.070687	    0.073099	    0.143785	    0.085942	    0.070125	    0.156067	   -0.022322	    0.045526	    0.023204	    0.060038	    0.080394	    0.140432	    0.164882	    0.059792	    0.224674	    0.018665	    0.029366	    0.048031	   -0.003416	    0.061012	    0.057596	    0.105815	    0.037008	    0.142823
     9.075	0	0	    0	    0.095295	    0.054777	    0.150072	   -0.050444	    0.059436	    0.008992	   -0.016090	    0.102920	    0.086830	    0.086845	    0.112666	    0.199511	   -0.127026	    0.145176	    0.018150	   -0.137439	    0.133151	   -0.004288	    0.197113	    0.127474	    0.324587	   -0.038437	   -0.006173	   -0.044610	    0.037803	    0.020811	    0.058615	   -0.203381	   -0.062203	   -0.265584	   -0.079298	   -0.013492	   -0.092789	   -0.095859	    0.021891	   -0.073968	   -0.154028	    0.030395	   -0.123633	    0.052006	    0.017200	    0.069207	    0.042922	    0.084243	    0.127165	    0.090307	    0.078758	    0.169064	   -0.053201	    0.021323	   -0.031878	    0.057823	    0.137650	    0.195473	    0.233012	    0.231584	    0.464595	    0.044001	    0.099845	    0.143846	   -0.032435	    0.015691	   -0.016744	    0.093921	    0.037926	    0.131846
     9.150	0	0	    0	    0.111962	    0.092855	    0.204817	   -0.065826	    0.060900	   -0.004926	   -0.039715	    0.130261	    0.090546	    0.071049	    0.194599	    0.265648	   -0.262654	    0.003297	   -0.259358	   -0.210414	    0.027629	   -0.182785	    0.190793	    0.160930	    0.351722	   -0.065294	   -0.017204	   -0.082499	    0.035581	    0.027994	    0.063574	   -0.204107	   -0.076394	   -0.280500	   -0.072751	   -0.005595	   -0.078347	   -0.120437	    0.002224	   -0.118214	   -0.188555	   -0.075551	   -0.264106	    0.040683	    0.029345	    0.070028	   -0.001615	    0.033352	    0.031738	    0.058367	    0.066147	    0.124514	   -0.054487	    0.011497	   -0.042990	    0.035695	    0.140380	    0.176075	    0.198181	    0.272438	    0.470620	    0.037821	    0.119399	    0.157220	   -0.035135	    0.003591	   -0.031543	    0.044082	    0.008357	    0.052438
     9.225	0	0	    0	    0.106431	    0.109493	    0.215924	   -0.028779	    0.046000	    0.017221	   -0.012686	    0.098564	    0.085878	    0.086349	    0.209650	    0.295999	   -0.131442	   -0.048406	   -0.179848	    0.038335	    0.018281	    0.056616	    0.136103	    0.150228	    0.286331	   -0.070236	   -0.053417	   -0.123653	    0.017159	    0.028722	    0.045881	   -0.108378	   -0.085934	   -0.194313	   -0.011267	    0.019983	    0.008716	   -0.067079	    0.003811	   -0.063268	   -0.053609	   -0.092862	   -0.146471	    0.028887	    0.013102	    0.041990	    0.003784	   -0.001165	    0.002619	    0.035028	    0.045685	    0.080713	   -0.042295	    0.006282	   -0.036013	   -0.015145	    0.118734	    0.103589	   -0.032837	    0.192969	    0.160132	   -0.006647	    0.119684	    0.113037	   -0.038766	    0.004557	   -0.034209	    0.025609	   -0.019587	    0.006022
     9.300	0	0	    0	    0.033094	    0.061294	    0.094388	   -0.019339	    0.056305	    0.036966	   -0.001597	    0.067748	    0.066151	    0.053753	    0.132227	    0.185980	    0.023213	    0.084356	    0.107568	    0.025143	    0.040126	    0.065268	    0.112326	    0.084848	    0.197174	   -0.061329	   -0.069199	   -0.130528	    0.015349	    0.005604	    0.020952	    0.027053	    0.074968	    0.102021	   -0.004859	    0.045781	    0.040922	    0.043476	    0.095833	    0.139309	    0.036457	    0.030582	    0.067039	    0.053276	    0.021719	    0.074995	    0.023132	    0.003478	    0.026610	    0.034234	    0.022754	    0.056988	   -0.019424	    0.013972	   -0.005452	   -0.064688	    0.042134	   -0.022555	   -0.099917	    0.016110	   -0.083807	   -0.049306	    0.049432	    0.000127	    0.025057	    0.033059	    0.058116	    0.059968	   -0.008277	    0.051691
     9.375	0	0	    0	    0.035949	    0.021257	    0.057206	   -0.016876	    0.053885	    0.037009	    0.003065	    0.067581	    0.070645	    0.037998	    0.052566	    0.090564	    0.019642	    0.070256	    0.089898	    0.025991	    0.046131	    0.072122	    0.101120	    0.080927	    0.182047	   -0.039145	   -0.046505	   -0.085650	    0.028430	    0.047419	    0.075848	    0.047198	    0.115138	    0.162336	    0.003121	    0.060521	    0.063643	    0.035385	    0.083984	    0.119369	    0.046364	    0.097315	    0.143678	    0.044959	    0.049063	    0.094022	    0.001205	    0.014287	    0.015491	    0.052184	    0.042489	    0.094674	   -0.004265	    0.027806	    0.023541	   -0.081727	    0.015695	   -0.066032	   -0.106418	   -0.020102	   -0.126520	   -0.057011	    0.020509	   -0.036501	    0.036360	    0.053268	    0.089628	    0.051791	    0.005929	    0.057720
     9.450	0	0	    0	    0.033035	    0.022372	    0.055407	   -0.011458	    0.055685	    0.044226	    0.009600	    0.069282	    0.078882	    0.039812	    0.036144	    0.075956	    0.026047	    0.063049	    0.089095	    0.028486	    0.047791	    0.076277	    0.097811	    0.065359	    0.163170	   -0.046530	   -0.035889	   -0.082419	    0.035224	    0.055973	    0.091197	    0.036456	    0.118573	    0.155029	    0.010655	    0.068614	    0.079269	    0.040216	    0.080863	    0.121079	    0.056018	    0.114817	    0.170834	    0.057585	    0.051436	    0.109021	   -0.003095	   -0.004194	   -0.007289	    0.049425	    0.038202	    0.087627	   -0.021260	    0.031481	    0.010220	   -0.087959	    0.004188	   -0.083770	   -0.114305	   -0.026333	   -0.140638	   -0.064757	    0.009271	   -0.055486	    0.034048	    0.060443	    0.094491	    0.055587	    0.000604	    0.056190
     9.525	0	0	    0	    0.033713	    0.022531	    0.056244	   -0.010019	    0.062346	    0.052326	    0.009133	    0.073295	    0.082428	    0.035006	    0.032608	    0.067614	    0.025064	    0.066815	    0.091879	    0.020051	    0.053073	    0.073123	    0.104792	    0.065758	    0.170550	   -0.036175	   -0.036938	   -0.073113	    0.043553	    0.063451	    0.107004	    0.021849	    0.112596	    0.134446	    0.012283	    0.076439	    0.088722	    0.038416	    0.084289	    0.122705	    0.058934	    0.125148	    0.184082	    0.080034	    0.066231	    0.146265	    0.038721	    0.017273	    0.055995	    0.083414	    0.031754	    0.115168	   -0.033698	    0.017659	   -0.016039	   -0.089009	    0.003271	   -0.085738	   -0.123656	   -0.030612	   -0.154269	   -0.072948	    0.006334	   -0.066614	    0.026329	    0.060950	    0.087280	    0.115972	    0.018316	    0.134288
     9.600	0	0	    0	    0.030353	    0.029733	    0.060086	   -0.009845	    0.064746	    0.054901	    0.003960	    0.073344	    0.077304	    0.030369	    0.028296	    0.058665	    0.021782	    0.065768	    0.087551	    0.015970	    0.051500	    0.067469	    0.102796	    0.079189	    0.181985	   -0.002250	   -0.006111	   -0.008361	    0.054672	    0.072117	    0.126789	    0.011272	    0.109199	    0.120470	    0.007988	    0.079851	    0.087839	    0.036207	    0.083834	    0.120041	    0.058122	    0.130208	    0.188330	    0.080447	    0.091777	    0.172225	    0.070469	    0.063860	    0.134329	    0.117905	    0.078715	    0.196620	   -0.040605	    0.006528	   -0.034077	   -0.085612	    0.001716	   -0.083896	   -0.126130	   -0.038368	   -0.164497	   -0.075926	   -0.004032	   -0.079958	    0.030991	    0.057169	    0.088160	    0.130792	    0.061811	    0.192603
     9.675	0	0	    0	    0.022113	    0.028494	    0.050607	   -0.021345	    0.067399	    0.046055	    0.005487	    0.069198	    0.074685	    0.043450	    0.025857	    0.069306	    0.007667	    0.061303	    0.068970	    0.025877	    0.046450	    0.072327	    0.118862	    0.079157	    0.198019	   -0.019560	    0.027080	    0.007520	   -0.014482	    0.066060	    0.051578	   -0.106015	    0.093894	   -0.012121	   -0.060968	    0.057135	   -0.003833	    0.007019	    0.087828	    0.094847	   -0.047893	    0.127986	    0.080093	    0.031792	    0.072790	    0.104582	    0.043457	    0.076257	    0.119714	    0.086827	    0.097657	    0.184484	   -0.032794	    0.015835	   -0.016959	    0.014796	    0.033230	    0.048026	    0.051332	   -0.018155	    0.033177	   -0.041308	   -0.001984	   -0.043292	   -0.010034	    0.067987	    0.057953	    0.090403	    0.045954	    0.136357
     9.750	0	0	    0	    0.064440	    0.021119	    0.085559	   -0.047833	    0.063770	    0.015937	   -0.013952	    0.081309	    0.067357	    0.081369	    0.052018	    0.133387	   -0.007982	    0.083957	    0.075975	    0.009962	    0.138861	    0.148823	    0.168739	    0.110471	    0.279209	   -0.056706	    0.011393	   -0.045312	    0.007033	    0.009466	    0.016499	   -0.198055	   -0.032317	   -0.230372	   -0.058384	   -0.009542	   -0.067926	   -0.065126	    0.022418	   -0.042709	   -0.072052	    0.043715	   -0.028337	    0.046624	    0.023241	    0.069865	    0.024979	    0.055964	    0.080943	    0.069855	    0.067567	    0.137422	   -0.067694	    0.023068	   -0.044626	    0.041881	    0.122624	    0.164505	    0.165637	    0.173182	    0.338819	    0.008744	    0.074643	    0.083388	   -0.042601	    0.032076	   -0.010525	    0.070727	    0.027798	    0.098525
     9.825	0	0	    0	    0.065736	    0.070919	    0.136655	   -0.006852	    0.055990	    0.049137	    0.001277	    0.081334	    0.082612	    0.078039	    0.127887	    0.205926	   -0.059744	    0.056078	   -0.003666	    0.060176	    0.095599	    0.155776	    0.133853	    0.132183	    0.266037	   -0.062600	   -0.018965	   -0.081565	    0.007356	    0.022086	    0.029442	   -0.028147	   -0.066592	   -0.094739	   -0.008830	    0.023228	    0.014398	   -0.058208	   -0.009933	   -0.068141	   -0.025371	   -0.022999	   -0.048369	    0.033073	    0.031909	    0.064982	    0.001508	    0.027684	    0.029191	    0.040645	    0.054611	    0.095256	   -0.035604	    0.006374	   -0.029230	   -0.028439	    0.110043	    0.081604	   -0.052164	    0.149757	    0.097593	   -0.006167	    0.120373	    0.114207	   -0.031577	    0.010217	   -0.021360	    0.045289	    0.005311	    0.050601
     9.900	0	0	    0	    0.032789	    0.024288	    0.057077	   -0.008956	    0.057700	    0.048744	    0.006407	    0.063672	    0.070079	    0.042937	    0.080925	    0.123861	    0.018542	    0.074444	    0.092987	    0.038177	    0.057725	    0.095902	    0.104349	    0.090127	    0.194477	   -0.065195	   -0.047204	   -0.112399	    0.028068	    0.026988	    0.055055	    0.014136	    0.084678	    0.098815	    0.006650	    0.052452	    0.059101	    0.039503	    0.076732	    0.116235	    0.044578	    0.055769	    0.100348	    0.045245	    0.039185	    0.084430	   -0.003283	   -0.007953	   -0.011236	    0.046284	    0.027500	    0.073783	   -0.013162	    0.030670	    0.017508	   -0.048251	    0.044673	   -0.003578	   -0.087724	    0.005639	   -0.082085	   -0.040028	    0.055899	    0.015872	    0.043857	    0.043893	    0.087749	    0.043510	   -0.006834	    0.036676
