 [File Information]      		 [Data Line]	36
Measured Date	2024/05/27 100721
ID		Version	11.0
Name	oceane_7	[HeaderType]	11.0/11.0
Comment	
[Measurement Info.]
Holder Location	       0
Block Design	Off     
Pre.Rest Time	       0
Task Time	       0
Pos.Rest Time	       0
Loop	       0
Averaging	       1
Total Points	     820
[.INF File]
Filename	Cognitive1.INF
[Condition-1]
HV Switching	OFF
 R1 ,R2 ,R3 ,R4 ,R5 ,R6 ,R7 ,R8 
 120.00, 70.00,120.00,100.00, 90.00, 70.00,120.00,120.00
 Gain(X1,X4,X16,X64)
 R1 ,R2 ,R3 ,R4 ,R5 ,R6 ,R7 ,R8 
 1,1,1,1,1,1,1,1
[Analysis Condition]
Smoothed Type	None            
Smoothed Points	       0
Smoothed Loop	       0
Baseline Method	None            
Baseline location	
[Text Info.]
Output Mode	Continious      	Task No.		Data Type	Hb      
Time Range	    0.00	   61.43	Averaing	1
(1,3)(5,3)(5,7)(2,7)(2,4)(6,4)(6,8)(1,1)(3,3)(5,5)(7,7)(2,2)(4,4)(6,6)(8,8)(3,1)(3,5)(7,5)(7,2)(4,2)(4,6)(8,6)
         	     	     	     	    ch- 1	    ch- 1	    ch- 1	    ch- 2	    ch- 2	    ch- 2	    ch- 3	    ch- 3	    ch- 3	    ch- 4	    ch- 4	    ch- 4	    ch- 5	    ch- 5	    ch- 5	    ch- 6	    ch- 6	    ch- 6	    ch- 7	    ch- 7	    ch- 7	    ch- 8	    ch- 8	    ch- 8	    ch- 9	    ch- 9	    ch- 9	    ch-10	    ch-10	    ch-10	    ch-11	    ch-11	    ch-11	    ch-12	    ch-12	    ch-12	    ch-13	    ch-13	    ch-13	    ch-14	    ch-14	    ch-14	    ch-15	    ch-15	    ch-15	    ch-16	    ch-16	    ch-16	    ch-17	    ch-17	    ch-17	    ch-18	    ch-18	    ch-18	    ch-19	    ch-19	    ch-19	    ch-20	    ch-20	    ch-20	    ch-21	    ch-21	    ch-21	    ch-22	    ch-22	    ch-22
Time(sec)	Task	Mark	Count	    oxyHb   	  deoxyHb	  totalHb	    oxyHb   	  deoxyHb	  totalHb	    oxyHb   	  deoxyHb	  totalHb	    oxyHb   	  deoxyHb	  totalHb	    oxyHb   	  deoxyHb	  totalHb	    oxyHb   	  deoxyHb	  totalHb	    oxyHb   	  deoxyHb	  totalHb	    oxyHb   	  deoxyHb	  totalHb	    oxyHb   	  deoxyHb	  totalHb	    oxyHb   	  deoxyHb	  totalHb	    oxyHb   	  deoxyHb	  totalHb	    oxyHb   	  deoxyHb	  totalHb	    oxyHb   	  deoxyHb	  totalHb	    oxyHb   	  deoxyHb	  totalHb	    oxyHb   	  deoxyHb	  totalHb	    oxyHb   	  deoxyHb	  totalHb	    oxyHb   	  deoxyHb	  totalHb	    oxyHb   	  deoxyHb	  totalHb	    oxyHb   	  deoxyHb	  totalHb	    oxyHb   	  deoxyHb	  totalHb	    oxyHb   	  deoxyHb	  totalHb	    oxyHb   	  deoxyHb	  totalHb
     0.000	0	0Z	    0	    0.000000	    0.000000	    0.000000	    0.000000	    0.000000	    0.000000	    0.000000	    0.000000	    0.000000	    0.000000	    0.000000	    0.000000	    0.000000	    0.000000	    0.000000	    0.000000	    0.000000	    0.000000	    0.000000	    0.000000	    0.000000	    0.000000	    0.000000	    0.000000	    0.000000	    0.000000	    0.000000	    0.000000	    0.000000	    0.000000	    0.000000	    0.000000	    0.000000	    0.000000	    0.000000	    0.000000	    0.000000	    0.000000	    0.000000	    0.000000	    0.000000	    0.000000	    0.000000	    0.000000	    0.000000	    0.000000	    0.000000	    0.000000	    0.000000	    0.000000	    0.000000	    0.000000	    0.000000	    0.000000	    0.000000	    0.000000	    0.000000	    0.000000	    0.000000	    0.000000	    0.000000	    0.000000	    0.000000	    0.000000	    0.000000	    0.000000
     0.075	0	0	    0	    0.002220	   -0.002804	   -0.000583	   -0.001997	   -0.001667	   -0.003664	   -0.001583	    0.002567	    0.000983	   -0.000740	   -0.000443	   -0.001183	   -0.001326	    0.000268	   -0.001058	   -0.002083	    0.001536	   -0.000547	   -0.011102	    0.011857	    0.000755	    0.002378	   -0.004418	   -0.002040	   -0.001415	    0.001013	   -0.000402	    0.000153	    0.001573	    0.001727	    0.001058	   -0.001539	   -0.000481	   -0.000328	    0.000408	    0.000080	    0.000725	    0.000515	    0.001240	    0.000179	   -0.000550	   -0.000372	   -0.014658	    0.010470	   -0.004188	   -0.004905	    0.001388	   -0.003516	   -0.004596	    0.001398	   -0.003199	    0.001074	   -0.001820	   -0.000747	    0.000838	   -0.000889	   -0.000051	   -0.000280	   -0.000439	   -0.000718	    0.003389	    0.001543	    0.004932	    0.003933	    0.001581	    0.005514
     0.150	0	0	    0	    0.005924	   -0.003595	    0.002329	    0.006019	   -0.003112	    0.002907	    0.004517	    0.003210	    0.007727	    0.001825	   -0.001299	    0.000526	    0.006068	   -0.001606	    0.004462	    0.005994	    0.002632	    0.008626	    0.008871	   -0.004051	    0.004820	    0.005093	   -0.003386	    0.001707	    0.017117	   -0.004491	    0.012625	    0.007758	    0.002773	    0.010531	    0.005432	   -0.001489	    0.003943	    0.003200	   -0.000574	    0.002626	    0.015270	    0.000202	    0.015472	    0.008246	    0.001963	    0.010209	   -0.010374	    0.008466	   -0.001909	    0.014462	   -0.002618	    0.011844	    0.012286	   -0.003469	    0.008817	    0.007183	   -0.001151	    0.006032	    0.006989	   -0.000343	    0.006646	    0.010940	   -0.000210	    0.010730	    0.016652	    0.007816	    0.024468	    0.013072	    0.000374	    0.013446
     0.225	0	0	    0	    0.012622	   -0.008152	    0.004470	    0.010642	   -0.005519	    0.005123	    0.015619	   -0.004122	    0.011497	    0.008429	   -0.001170	    0.007258	    0.011151	   -0.000144	    0.011007	    0.017617	   -0.005405	    0.012212	    0.015609	   -0.010363	    0.005245	    0.008741	   -0.007525	    0.001217	    0.031256	   -0.000292	    0.030964	    0.012225	    0.004483	    0.016708	    0.007369	   -0.000857	    0.006512	    0.008716	    0.000829	    0.009545	    0.022643	    0.004053	    0.026696	    0.014462	   -0.005472	    0.008990	   -0.002177	    0.000399	   -0.001778	    0.024386	   -0.002173	    0.022213	    0.023384	    0.001041	    0.024425	    0.008964	   -0.000531	    0.008433	    0.009336	    0.000990	    0.010326	    0.016695	    0.002659	    0.019354	    0.018851	    0.010294	    0.029144	    0.006539	    0.004090	    0.010629
     0.300	0	0	    0	    0.001976	    0.001437	    0.003413	    0.009390	   -0.001983	    0.007408	    0.015751	   -0.002101	    0.013650	    0.007514	    0.000628	    0.008143	    0.009549	    0.003690	    0.013239	    0.014604	    0.002183	    0.016787	    0.012301	   -0.002128	    0.010173	    0.004551	   -0.003639	    0.000912	    0.030856	    0.005231	    0.036087	    0.013175	    0.005915	    0.019090	    0.007550	   -0.000707	    0.006843	    0.009962	    0.002297	    0.012259	    0.019944	    0.009386	    0.029330	    0.013978	    0.000990	    0.014967	   -0.008364	    0.005592	   -0.002772	    0.022264	   -0.001269	    0.020995	    0.025053	    0.004934	    0.029986	    0.009820	   -0.000174	    0.009647	    0.010672	    0.001322	    0.011994	    0.018554	    0.004876	    0.023430	    0.018304	    0.013876	    0.032179	    0.009646	    0.002831	    0.012477
     0.375	0	0	    0	    0.014117	   -0.010044	    0.004072	    0.009296	   -0.002615	    0.006681	    0.011980	    0.000703	    0.012683	    0.007309	    0.000890	    0.008199	    0.010865	    0.001700	    0.012565	    0.009441	    0.002610	    0.012051	    0.010110	    0.002412	    0.012522	    0.007833	   -0.011322	   -0.003489	    0.028996	    0.003430	    0.032426	    0.011347	    0.005908	    0.017254	    0.007682	   -0.001215	    0.006468	    0.009857	    0.002558	    0.012415	    0.022048	    0.005373	    0.027421	    0.012146	    0.000929	    0.013076	   -0.000807	   -0.000319	   -0.001126	    0.017175	   -0.003873	    0.013302	    0.023335	    0.005862	    0.029197	    0.009055	   -0.000270	    0.008785	    0.010598	    0.001333	    0.011931	    0.017342	    0.004279	    0.021621	    0.018747	    0.011590	    0.030336	    0.007178	    0.004552	    0.011730
     0.450	0	0	    0	    0.002867	    0.003207	    0.006074	    0.007729	   -0.002933	    0.004795	    0.010035	    0.001276	    0.011311	    0.008144	    0.000222	    0.008366	    0.011017	    0.001891	    0.012908	    0.007684	    0.001596	    0.009279	    0.004694	    0.002119	    0.006813	    0.003622	   -0.010658	   -0.007036	    0.027064	    0.005448	    0.032512	    0.011515	    0.006204	    0.017718	    0.008094	   -0.000876	    0.007218	    0.010058	    0.002471	    0.012529	    0.020351	    0.008164	    0.028515	    0.009543	    0.003887	    0.013431	   -0.003419	    0.002184	   -0.001235	    0.016465	   -0.005691	    0.010773	    0.024304	    0.005602	    0.029906	    0.009325	    0.000081	    0.009406	    0.011516	    0.001503	    0.013019	    0.017914	    0.003708	    0.021622	    0.018621	    0.012963	    0.031583	    0.015274	    0.000555	    0.015829
     0.525	0	0	    0	    0.014880	   -0.010999	    0.003881	    0.007097	   -0.002522	    0.004575	    0.006832	    0.004945	    0.011777	    0.009068	   -0.000309	    0.008759	    0.016129	    0.000901	    0.017030	    0.009257	    0.002323	    0.011581	   -0.007257	    0.012129	    0.004872	    0.003181	   -0.010332	   -0.007151	    0.027878	    0.004613	    0.032490	    0.011708	    0.006287	    0.017995	    0.007730	   -0.000350	    0.007380	    0.010949	    0.002491	    0.013440	    0.021682	    0.010178	    0.031859	    0.008502	    0.002570	    0.011072	    0.002780	   -0.003496	   -0.000715	    0.015594	   -0.006384	    0.009211	    0.024861	    0.006369	    0.031230	    0.009420	   -0.000391	    0.009029	    0.011544	    0.002004	    0.013548	    0.017807	    0.004685	    0.022491	    0.018155	    0.013932	    0.032087	    0.016311	   -0.001316	    0.014996
     0.600	0	0	    0	    0.013585	   -0.005417	    0.008168	    0.005541	   -0.002842	    0.002699	    0.009680	   -0.000455	    0.009225	    0.009840	   -0.001412	    0.008428	    0.014599	    0.001744	    0.016344	    0.005552	    0.003167	    0.008719	    0.004559	   -0.001637	    0.002922	    0.005526	   -0.016767	   -0.011241	    0.026708	    0.003417	    0.030125	    0.010766	    0.005854	    0.016620	    0.007610	   -0.000122	    0.007488	    0.010381	    0.002894	    0.013274	    0.023168	    0.009370	    0.032538	    0.010370	    0.000889	    0.011259	    0.000651	   -0.001686	   -0.001035	    0.012522	   -0.009267	    0.003255	    0.023375	    0.006292	    0.029667	    0.007709	    0.000244	    0.007952	    0.010747	    0.002196	    0.012943	    0.017323	    0.003969	    0.021292	    0.017766	    0.013309	    0.031076	    0.009188	    0.002304	    0.011492
     0.675	0	0	    0	    0.022529	   -0.013756	    0.008773	    0.003831	   -0.001253	    0.002578	    0.002783	    0.008749	    0.011532	    0.009358	   -0.000422	    0.008936	    0.014445	    0.001555	    0.015999	   -0.001089	    0.009849	    0.008760	   -0.005876	    0.012483	    0.006607	    0.004741	   -0.016002	   -0.011261	    0.022856	    0.003742	    0.026597	    0.009272	    0.006597	    0.015869	    0.006816	    0.000267	    0.007083	    0.009428	    0.003213	    0.012641	    0.020756	    0.010477	    0.031233	    0.001189	    0.008695	    0.009884	   -0.001961	    0.002551	    0.000589	    0.007676	   -0.010411	   -0.002736	    0.021156	    0.006533	    0.027688	    0.006836	    0.000130	    0.006966	    0.009719	    0.002445	    0.012165	    0.015892	    0.004516	    0.020408	    0.014864	    0.014969	    0.029832	    0.011758	    0.000910	    0.012669
     0.750	0	0	    0	    0.020772	   -0.011524	    0.009248	    0.003666	   -0.002443	    0.001222	    0.009949	   -0.003243	    0.006706	    0.007318	   -0.000653	    0.006665	    0.013038	    0.003347	    0.016385	    0.010300	   -0.002732	    0.007568	    0.007119	   -0.001793	    0.005327	    0.001887	   -0.016525	   -0.014638	    0.020144	    0.002913	    0.023057	    0.008827	    0.006332	    0.015159	    0.005715	    0.000367	    0.006081	    0.008900	    0.003111	    0.012011	    0.022267	    0.007779	    0.030046	    0.004335	    0.002957	    0.007292	   -0.004921	    0.002617	   -0.002304	    0.004577	   -0.014049	   -0.009472	    0.019742	    0.006168	    0.025910	    0.005527	    0.000006	    0.005533	    0.008378	    0.002523	    0.010901	    0.015922	    0.002903	    0.018825	    0.016337	    0.011232	    0.027569	    0.006135	    0.003890	    0.010025
     0.825	0	0	    0	    0.004969	   -0.001410	    0.003559	   -0.001320	    0.000960	   -0.000360	   -0.001560	    0.004056	    0.002496	    0.004724	   -0.000677	    0.004048	    0.005955	    0.006830	    0.012785	    0.000141	   -0.003280	   -0.003139	   -0.017996	    0.009684	   -0.008313	   -0.000659	   -0.019898	   -0.020557	    0.017341	    0.003147	    0.020488	    0.007209	    0.006719	    0.013928	    0.005048	    0.000553	    0.005601	    0.007397	    0.003729	    0.011127	    0.020537	    0.009540	    0.030078	    0.003096	    0.001208	    0.004303	   -0.012887	    0.005292	   -0.007595	    0.000321	   -0.016751	   -0.016430	    0.017360	    0.006205	    0.023565	    0.004064	   -0.000243	    0.003821	    0.006563	    0.002175	    0.008738	    0.015360	    0.002625	    0.017985	    0.012774	    0.013203	    0.025977	    0.007970	    0.002438	    0.010407
     0.900	0	0	    0	    0.033678	   -0.026861	    0.006816	    0.002782	   -0.004512	   -0.001731	    0.006754	   -0.004480	    0.002275	    0.006485	   -0.002137	    0.004347	    0.013647	    0.000374	    0.014021	    0.009403	   -0.008047	    0.001356	    0.011639	   -0.019522	   -0.007884	   -0.000107	   -0.021949	   -0.022056	    0.013997	    0.002687	    0.016684	    0.007672	    0.006541	    0.014213	    0.004420	    0.000205	    0.004625	    0.007009	    0.003802	    0.010811	    0.019529	    0.010320	    0.029850	    0.001075	    0.002455	    0.003529	   -0.017949	    0.006787	   -0.011162	   -0.005037	   -0.017893	   -0.022930	    0.015796	    0.006435	    0.022230	    0.002795	   -0.000309	    0.002486	    0.004750	    0.001798	    0.006548	    0.013304	    0.003551	    0.016855	    0.009234	    0.015604	    0.024838	    0.003098	    0.004406	    0.007504
     0.975	0	0	    0	   -0.000376	   -0.000498	   -0.000875	   -0.001797	   -0.001747	   -0.003544	   -0.002127	    0.000531	   -0.001596	    0.002497	    0.000241	    0.002738	    0.005850	    0.005872	    0.011722	   -0.004617	    0.000025	   -0.004592	   -0.008580	    0.000821	   -0.007759	   -0.007113	   -0.017800	   -0.024913	    0.012717	   -0.000103	    0.012614	    0.005545	    0.007528	    0.013072	    0.003749	    0.000234	    0.003983	    0.005292	    0.004243	    0.009535	    0.016344	    0.011093	    0.027438	    0.000179	    0.000408	    0.000586	   -0.014049	    0.001454	   -0.012595	   -0.007633	   -0.022237	   -0.029870	    0.014488	    0.005135	    0.019624	    0.001278	   -0.000438	    0.000841	    0.003346	    0.001532	    0.004879	    0.008532	    0.006946	    0.015478	    0.005001	    0.017131	    0.022133	   -0.000627	    0.004124	    0.003497
     1.050	0	0	    0	   -0.005229	    0.000845	   -0.004384	   -0.002341	   -0.003669	   -0.006010	   -0.003737	    0.001939	   -0.001798	    0.000004	    0.001248	    0.001252	    0.002568	    0.006376	    0.008944	   -0.011646	    0.002060	   -0.009586	   -0.025836	    0.015464	   -0.010372	   -0.009742	   -0.016475	   -0.026217	    0.005723	    0.003123	    0.008846	    0.004493	    0.007896	    0.012389	    0.003124	    0.000430	    0.003554	    0.004385	    0.004285	    0.008671	    0.006334	    0.019403	    0.025738	   -0.006381	    0.003806	   -0.002575	   -0.019339	    0.007345	   -0.011995	   -0.015404	   -0.019641	   -0.035044	    0.011810	    0.005210	    0.017020	   -0.000206	   -0.000300	   -0.000505	    0.002259	    0.001474	    0.003733	    0.002633	    0.012309	    0.014942	   -0.002574	    0.021657	    0.019082	    0.001225	    0.000204	    0.001429
     1.125	0	0	    0	   -0.006593	    0.002564	   -0.004029	   -0.002755	   -0.002608	   -0.005363	   -0.003471	    0.005225	    0.001754	   -0.000975	    0.002617	    0.001643	    0.004871	    0.003525	    0.008396	   -0.004185	   -0.000497	   -0.004682	   -0.015338	    0.010407	   -0.004931	   -0.009123	   -0.020375	   -0.029498	    0.008960	   -0.000530	    0.008430	    0.006582	    0.007089	    0.013671	    0.005330	   -0.000278	    0.005051	    0.003001	    0.004818	    0.007820	    0.005084	    0.020259	    0.025343	   -0.001018	    0.004480	    0.003461	   -0.017406	    0.004825	   -0.012582	   -0.010521	   -0.026036	   -0.036556	    0.014310	    0.003564	    0.017873	    0.004844	   -0.000952	    0.003892	    0.005347	    0.000773	    0.006120	    0.003550	    0.011928	    0.015477	    0.004149	    0.022838	    0.026987	    0.006810	    0.003625	    0.010435
     1.200	0	0	    0	   -0.004604	    0.005844	    0.001239	    0.003116	   -0.000533	    0.002583	    0.006299	    0.004378	    0.010677	    0.004386	    0.002165	    0.006551	    0.011323	    0.011076	    0.022399	    0.002563	    0.004222	    0.006784	   -0.010022	    0.007603	   -0.002419	   -0.003898	   -0.016930	   -0.020828	    0.036311	   -0.001217	    0.035094	    0.014604	    0.008630	    0.023234	    0.008839	    0.001680	    0.010519	    0.009058	    0.003915	    0.012973	    0.021560	    0.019343	    0.040903	    0.005722	    0.004129	    0.009851	   -0.007739	    0.003747	   -0.003992	    0.010787	   -0.020194	   -0.009407	    0.033543	    0.006639	    0.040182	    0.010442	    0.001056	    0.011497	    0.011639	    0.001964	    0.013604	    0.016643	    0.012309	    0.028952	    0.015431	    0.026480	    0.041911	    0.005149	    0.007884	    0.013033
     1.275	0	0	    0	    0.015238	   -0.010480	    0.004757	    0.007182	   -0.001017	    0.006165	    0.008561	    0.002485	    0.011046	    0.008323	    0.002430	    0.010754	    0.019933	    0.008000	    0.027933	    0.006866	    0.003141	    0.010007	   -0.005781	    0.005228	   -0.000553	    0.001245	   -0.020722	   -0.019477	    0.043783	    0.005327	    0.049110	    0.016944	    0.010855	    0.027799	    0.010601	    0.001877	    0.012478	    0.013860	    0.005433	    0.019294	    0.028358	    0.020546	    0.048904	    0.009917	    0.004720	    0.014637	   -0.012027	    0.006708	   -0.005319	    0.016342	   -0.016720	   -0.000378	    0.039559	    0.012550	    0.052109	    0.012931	    0.001481	    0.014412	    0.013545	    0.003262	    0.016807	    0.021888	    0.015554	    0.037442	    0.019197	    0.028506	    0.047704	    0.009400	    0.006896	    0.016296
     1.350	0	0	    0	    0.024392	   -0.014041	    0.010352	    0.009603	    0.000395	    0.009998	    0.010414	    0.005157	    0.015570	    0.011367	    0.002824	    0.014191	    0.025932	    0.005668	    0.031600	    0.011036	    0.001748	    0.012784	   -0.006360	    0.010862	    0.004502	    0.006940	   -0.026558	   -0.019618	    0.045815	    0.010115	    0.055930	    0.018616	    0.011228	    0.029844	    0.011782	    0.002339	    0.014120	    0.015955	    0.005918	    0.021873	    0.029302	    0.023115	    0.052417	    0.011042	    0.001372	    0.012414	   -0.002088	    0.001006	   -0.001082	    0.017132	   -0.014229	    0.002904	    0.042396	    0.015103	    0.057499	    0.013406	    0.002568	    0.015974	    0.014694	    0.003898	    0.018592	    0.024763	    0.016225	    0.040988	    0.020410	    0.029193	    0.049603	    0.008706	    0.004292	    0.012998
     1.425	0	0	    0	    0.002867	    0.003207	    0.006074	    0.010294	   -0.002386	    0.007907	    0.008482	    0.004774	    0.013256	    0.012446	    0.001342	    0.013788	    0.022884	    0.009935	    0.032819	    0.015658	   -0.004493	    0.011165	    0.004341	   -0.002235	    0.002107	    0.001360	   -0.022904	   -0.021544	    0.042535	    0.009925	    0.052460	    0.017442	    0.010991	    0.028432	    0.011625	    0.002219	    0.013844	    0.015904	    0.006456	    0.022360	    0.028069	    0.023616	    0.051686	    0.010071	    0.003004	    0.013076	   -0.003586	    0.001438	   -0.002148	    0.014525	   -0.016795	   -0.002270	    0.040856	    0.014708	    0.055563	    0.013516	    0.002417	    0.015932	    0.015588	    0.003561	    0.019148	    0.023749	    0.016371	    0.040121	    0.019768	    0.028270	    0.048038	    0.011138	    0.002233	    0.013371
     1.500	0	0	    0	    0.008756	    0.003689	    0.012445	    0.008656	    0.001413	    0.010069	    0.013453	    0.001374	    0.014827	    0.009162	    0.005886	    0.015049	    0.023024	    0.011692	    0.034716	    0.013395	   -0.001147	    0.012247	    0.000003	    0.007156	    0.007159	    0.001589	   -0.021158	   -0.019569	    0.042210	    0.011483	    0.053693	    0.018542	    0.010968	    0.029509	    0.012179	    0.002809	    0.014988	    0.016417	    0.006532	    0.022948	    0.028762	    0.022976	    0.051738	    0.006748	    0.004474	    0.011222	   -0.005185	    0.007397	    0.002212	    0.014219	   -0.016385	   -0.002166	    0.042111	    0.014556	    0.056668	    0.014236	    0.002793	    0.017029	    0.016682	    0.003538	    0.020220	    0.025500	    0.015153	    0.040653	    0.020964	    0.027955	    0.048919	    0.010389	    0.000389	    0.010778
     1.575	0	0	    0	    0.014153	   -0.003163	    0.010990	    0.011778	   -0.001556	    0.010222	    0.013305	   -0.001848	    0.011457	    0.009656	    0.004226	    0.013882	    0.026809	    0.008409	    0.035218	    0.017631	   -0.004795	    0.012835	    0.005883	    0.001835	    0.007719	    0.001938	   -0.023860	   -0.021922	    0.041247	    0.011842	    0.053089	    0.018397	    0.009920	    0.028317	    0.012399	    0.002629	    0.015028	    0.016322	    0.006696	    0.023017	    0.031480	    0.022220	    0.053700	    0.006750	    0.005454	    0.012203	   -0.001355	    0.001187	   -0.000167	    0.012740	   -0.016797	   -0.004057	    0.040808	    0.015067	    0.055876	    0.013128	    0.003364	    0.016492	    0.016191	    0.004120	    0.020311	    0.025614	    0.014870	    0.040484	    0.021279	    0.026921	    0.048201	    0.011528	    0.000648	    0.012177
     1.650	0	0	    0	    0.010656	   -0.009584	    0.001071	    0.013234	   -0.005188	    0.008046	    0.013410	   -0.002616	    0.010794	    0.011791	    0.002690	    0.014481	    0.022699	    0.011298	    0.033997	    0.014293	   -0.002857	    0.011436	    0.011454	   -0.004220	    0.007234	    0.000982	   -0.023553	   -0.022571	    0.038966	    0.010136	    0.049102	    0.017205	    0.010139	    0.027344	    0.011865	    0.002885	    0.014750	    0.016379	    0.006576	    0.022954	    0.029814	    0.022668	    0.052483	    0.010299	    0.000695	    0.010994	   -0.006136	    0.005821	   -0.000315	    0.009594	   -0.017786	   -0.008192	    0.039007	    0.014713	    0.053720	    0.012183	    0.003807	    0.015990	    0.015665	    0.004341	    0.020005	    0.026486	    0.012849	    0.039335	    0.021062	    0.025067	    0.046129	    0.003678	    0.005602	    0.009280
     1.725	0	0	    0	    0.021810	   -0.006806	    0.015005	    0.007166	    0.001650	    0.008816	    0.007834	    0.002777	    0.010611	    0.010882	    0.002926	    0.013807	    0.023125	    0.011133	    0.034257	    0.013043	   -0.002356	    0.010687	    0.006629	    0.003807	    0.010437	    0.000376	   -0.023233	   -0.022857	    0.035767	    0.010839	    0.046607	    0.015577	    0.011183	    0.026759	    0.011273	    0.003073	    0.014346	    0.015269	    0.006956	    0.022225	    0.029726	    0.021328	    0.051054	    0.007280	    0.000850	    0.008129	   -0.003371	    0.003590	    0.000219	    0.007199	   -0.019235	   -0.012036	    0.037427	    0.013416	    0.050843	    0.011802	    0.003531	    0.015332	    0.014856	    0.004461	    0.019317	    0.025104	    0.012298	    0.037402	    0.018530	    0.025755	    0.044285	    0.005978	    0.000403	    0.006381
     1.800	0	0	    0	    0.005749	    0.008463	    0.014212	    0.005415	    0.001156	    0.006571	    0.003352	    0.004658	    0.008009	    0.009280	    0.003538	    0.012818	    0.021352	    0.013375	    0.034727	    0.009746	   -0.000446	    0.009300	    0.001414	    0.007065	    0.008478	   -0.002001	   -0.021129	   -0.023130	    0.032646	    0.009788	    0.042434	    0.014657	    0.009910	    0.024567	    0.010774	    0.002890	    0.013665	    0.014690	    0.007180	    0.021870	    0.028192	    0.020826	    0.049018	    0.002442	    0.004597	    0.007039	    0.003374	    0.001086	    0.004460	    0.003517	   -0.020521	   -0.017004	    0.033696	    0.013711	    0.047407	    0.010420	    0.003749	    0.014168	    0.013754	    0.004539	    0.018293	    0.023638	    0.012220	    0.035858	    0.017715	    0.023502	    0.041217	    0.001716	    0.004602	    0.006317
     1.875	0	0	    0	    0.014913	   -0.004123	    0.010790	    0.011280	   -0.005935	    0.005345	    0.008125	   -0.001898	    0.006227	    0.010853	    0.000390	    0.011243	    0.024647	    0.007706	    0.032352	    0.015022	   -0.008597	    0.006425	    0.010154	   -0.007487	    0.002667	   -0.001548	   -0.023495	   -0.025043	    0.029939	    0.007990	    0.037929	    0.013229	    0.010100	    0.023329	    0.009862	    0.003151	    0.013013	    0.013625	    0.006683	    0.020309	    0.027337	    0.019911	    0.047248	    0.006831	   -0.001124	    0.005707	   -0.005007	    0.002007	   -0.003000	   -0.000809	   -0.020849	   -0.021658	    0.031263	    0.013253	    0.044517	    0.009380	    0.003525	    0.012905	    0.012329	    0.004772	    0.017101	    0.022107	    0.011586	    0.033693	    0.014718	    0.024498	    0.039217	    0.001760	    0.003875	    0.005635
     1.950	0	0	    0	    0.008448	   -0.008726	   -0.000278	    0.005625	   -0.002247	    0.003379	    0.000561	    0.004470	    0.005030	    0.008526	    0.002179	    0.010705	    0.022137	    0.007144	    0.029281	    0.002475	    0.000134	    0.002609	   -0.003657	    0.007729	    0.004072	   -0.000941	   -0.026501	   -0.027443	    0.026607	    0.006819	    0.033426	    0.011293	    0.010489	    0.021782	    0.008113	    0.004056	    0.012169	    0.012141	    0.006858	    0.018999	    0.027440	    0.016055	    0.043495	   -0.000381	    0.005948	    0.005568	   -0.007006	    0.004872	   -0.002134	   -0.002588	   -0.023243	   -0.025832	    0.029225	    0.012262	    0.041488	    0.007814	    0.003927	    0.011741	    0.011167	    0.004538	    0.015705	    0.019985	    0.011580	    0.031566	    0.014106	    0.022843	    0.036949	    0.001729	    0.003536	    0.005265
     2.025	0	0	    0	    0.005188	    0.003227	    0.008415	    0.004035	   -0.001334	    0.002700	    0.005692	    0.000825	    0.006516	    0.008855	    0.001502	    0.010357	    0.019759	    0.010118	    0.029877	    0.004187	   -0.003087	    0.001100	    0.007731	   -0.003594	    0.004137	   -0.003982	   -0.024215	   -0.028197	    0.024569	    0.006883	    0.031452	    0.010312	    0.010426	    0.020738	    0.007465	    0.004383	    0.011848	    0.011224	    0.006540	    0.017764	    0.023522	    0.018748	    0.042269	   -0.002325	    0.006411	    0.004086	   -0.010942	    0.010001	   -0.000942	   -0.006603	   -0.022907	   -0.029510	    0.026436	    0.012658	    0.039094	    0.006411	    0.004144	    0.010555	    0.009973	    0.004619	    0.014592	    0.017824	    0.011933	    0.029757	    0.012607	    0.022624	    0.035231	    0.000039	    0.002091	    0.002130
     2.100	0	0	    0	    0.000954	   -0.004113	   -0.003159	   -0.000040	   -0.000298	   -0.000338	   -0.002310	    0.005897	    0.003587	    0.006308	    0.001901	    0.008209	    0.015131	    0.012931	    0.028061	   -0.004579	    0.002041	   -0.002538	   -0.010469	    0.006002	   -0.004468	   -0.002696	   -0.026946	   -0.029642	    0.019671	    0.007204	    0.026875	    0.007358	    0.011447	    0.018805	    0.006768	    0.004353	    0.011121	    0.010280	    0.006476	    0.016756	    0.020392	    0.019696	    0.040087	   -0.008198	    0.005445	   -0.002753	   -0.016694	    0.012409	   -0.004285	   -0.008508	   -0.025458	   -0.033966	    0.023755	    0.012328	    0.036083	    0.005602	    0.003386	    0.008988	    0.008949	    0.004366	    0.013315	    0.014877	    0.012331	    0.027208	    0.008913	    0.022422	    0.031335	    0.001022	   -0.004254	   -0.003231
     2.175	0	0	    0	    0.011020	   -0.009073	    0.001947	    0.005211	   -0.001214	    0.003997	    0.003598	    0.004355	    0.007953	    0.007064	    0.001071	    0.008135	    0.019955	    0.006461	    0.026417	    0.004953	   -0.002416	    0.002537	   -0.002472	    0.011118	    0.008646	    0.001412	   -0.028584	   -0.027172	    0.030046	    0.001724	    0.031770	    0.013205	    0.009422	    0.022627	    0.011060	    0.002702	    0.013762	    0.010528	    0.005131	    0.015659	    0.022298	    0.016553	    0.038852	    0.003973	    0.003102	    0.007075	    0.000747	   -0.001562	   -0.000815	    0.003892	   -0.027528	   -0.023636	    0.031527	    0.009907	    0.041434	    0.011748	    0.003699	    0.015448	    0.014222	    0.003640	    0.017862	    0.020427	    0.009643	    0.030070	    0.020401	    0.020951	    0.041353	    0.006614	    0.000131	    0.006746
     2.250	0	0	    0	    0.020271	   -0.012878	    0.007394	    0.012738	   -0.000985	    0.011753	    0.013650	    0.001455	    0.015105	    0.012117	    0.002021	    0.014138	    0.027189	    0.010593	    0.037781	    0.011920	    0.002257	    0.014177	    0.010378	    0.003195	    0.013573	    0.005733	   -0.028209	   -0.022476	    0.046155	    0.010279	    0.056434	    0.018717	    0.011395	    0.030112	    0.013410	    0.004682	    0.018092	    0.016247	    0.006030	    0.022277	    0.034211	    0.017857	    0.052068	    0.003739	    0.007551	    0.011289	   -0.002174	    0.006541	    0.004367	    0.018118	   -0.019578	   -0.001460	    0.044887	    0.015839	    0.060727	    0.014519	    0.005333	    0.019852	    0.017996	    0.005302	    0.023298	    0.028451	    0.013084	    0.041535	    0.024283	    0.025700	    0.049983	    0.003270	    0.007199	    0.010469
     2.325	0	0	    0	    0.007747	   -0.000010	    0.007738	    0.013842	   -0.000390	    0.013452	    0.018644	   -0.001958	    0.016686	    0.011186	    0.006706	    0.017892	    0.029041	    0.013269	    0.042310	    0.018240	   -0.001239	    0.017001	    0.027167	   -0.012313	    0.014853	    0.005666	   -0.025635	   -0.019968	    0.049508	    0.013043	    0.062551	    0.021237	    0.011975	    0.033212	    0.015169	    0.005056	    0.020225	    0.019303	    0.006697	    0.026001	    0.036408	    0.021076	    0.057484	    0.009066	    0.004793	    0.013859	    0.000162	    0.006916	    0.007078	    0.019686	   -0.016505	    0.003182	    0.048301	    0.018003	    0.066305	    0.016205	    0.005585	    0.021791	    0.020014	    0.005914	    0.025928	    0.031619	    0.014416	    0.046034	    0.026922	    0.025460	    0.052382	    0.006175	    0.003164	    0.009338
     2.400	0	0	    0	    0.020271	   -0.012878	    0.007394	    0.014289	    0.000834	    0.015123	    0.013856	    0.004312	    0.018168	    0.016411	    0.004287	    0.020698	    0.034772	    0.008409	    0.043181	    0.017596	    0.000617	    0.018214	    0.013547	    0.004214	    0.017761	    0.008395	   -0.026357	   -0.017962	    0.050697	    0.013865	    0.064562	    0.020973	    0.013028	    0.034001	    0.015263	    0.005665	    0.020928	    0.020929	    0.007189	    0.028118	    0.037341	    0.019557	    0.056898	    0.008035	    0.006415	    0.014450	   -0.001192	    0.007632	    0.006440	    0.020549	   -0.016814	    0.003735	    0.048579	    0.019382	    0.067961	    0.016302	    0.005991	    0.022292	    0.020855	    0.005856	    0.026711	    0.032470	    0.014459	    0.046929	    0.026559	    0.025419	    0.051978	    0.010267	    0.001508	    0.011775
     2.475	0	0	    0	    0.020085	   -0.003647	    0.016438	    0.012420	    0.002268	    0.014688	    0.012721	    0.001668	    0.014389	    0.015458	    0.004178	    0.019636	    0.032265	    0.013067	    0.045332	    0.018130	    0.002141	    0.020271	    0.015083	    0.001496	    0.016579	    0.005436	   -0.024662	   -0.019226	    0.049299	    0.013337	    0.062636	    0.020316	    0.012706	    0.033023	    0.015714	    0.005382	    0.021096	    0.020461	    0.007519	    0.027980	    0.037453	    0.020167	    0.057620	    0.007370	    0.007893	    0.015263	   -0.000522	    0.008155	    0.007632	    0.020149	   -0.019151	    0.000999	    0.048066	    0.017799	    0.065865	    0.016454	    0.006068	    0.022522	    0.020985	    0.006131	    0.027116	    0.032867	    0.012973	    0.045839	    0.025395	    0.026017	    0.051412	    0.008606	    0.002899	    0.011506
     2.550	0	0	    0	    0.044800	   -0.038872	    0.005928	    0.017827	   -0.003914	    0.013914	    0.021761	   -0.004256	    0.017505	    0.017898	    0.002797	    0.020696	    0.039330	    0.003764	    0.043094	    0.024218	   -0.009753	    0.014466	    0.029245	   -0.016951	    0.012294	    0.006454	   -0.028215	   -0.021762	    0.047979	    0.014869	    0.062847	    0.021775	    0.011928	    0.033703	    0.015882	    0.006438	    0.022320	    0.021484	    0.006875	    0.028358	    0.038769	    0.018030	    0.056799	    0.011948	    0.001314	    0.013263	   -0.012609	    0.016533	    0.003924	    0.019155	   -0.018930	    0.000225	    0.048394	    0.018046	    0.066439	    0.016249	    0.006582	    0.022831	    0.021289	    0.006278	    0.027567	    0.032780	    0.013062	    0.045842	    0.025814	    0.025411	    0.051225	    0.000265	    0.009482	    0.009747
     2.625	0	0	    0	    0.023281	   -0.004654	    0.018628	    0.011191	    0.004171	    0.015362	    0.012995	    0.005401	    0.018396	    0.016174	    0.005763	    0.021938	    0.032616	    0.011876	    0.044492	    0.012256	    0.003490	    0.015746	    0.007392	    0.013132	    0.020524	    0.007166	   -0.025941	   -0.018775	    0.047042	    0.015031	    0.062072	    0.020016	    0.012907	    0.032922	    0.015095	    0.007249	    0.022343	    0.021401	    0.007697	    0.029098	    0.036843	    0.020091	    0.056935	    0.007739	    0.007745	    0.015484	   -0.005385	    0.012870	    0.007485	    0.016866	   -0.018518	   -0.001652	    0.046355	    0.018559	    0.064915	    0.015221	    0.007100	    0.022321	    0.021170	    0.006420	    0.027590	    0.031835	    0.013629	    0.045464	    0.025568	    0.024699	    0.050268	    0.004633	    0.003080	    0.007714
     2.700	0	0	    0	    0.019364	   -0.008753	    0.010611	    0.011644	    0.002700	    0.014344	    0.014807	    0.001567	    0.016375	    0.014611	    0.006164	    0.020775	    0.033375	    0.009744	    0.043119	    0.010612	    0.000695	    0.011307	    0.005085	    0.006707	    0.011792	    0.004685	   -0.023485	   -0.018800	    0.044753	    0.013265	    0.058018	    0.018227	    0.012904	    0.031131	    0.014938	    0.006913	    0.021851	    0.020858	    0.007621	    0.028480	    0.033257	    0.021348	    0.054604	    0.002289	    0.007149	    0.009438	   -0.008353	    0.013395	    0.005042	    0.012462	   -0.017974	   -0.005511	    0.044264	    0.017230	    0.061495	    0.014272	    0.007015	    0.021288	    0.020067	    0.006477	    0.026544	    0.030618	    0.012990	    0.043608	    0.022954	    0.024599	    0.047553	    0.002777	    0.000989	    0.003766
     2.775	0	0	    0	    0.040759	   -0.030788	    0.009971	    0.010818	    0.001225	    0.012043	    0.013225	    0.000108	    0.013333	    0.016360	    0.003563	    0.019923	    0.038339	    0.006226	    0.044566	    0.010612	    0.000695	    0.011307	   -0.003215	    0.005290	    0.002075	    0.007659	   -0.028835	   -0.021176	    0.040234	    0.013555	    0.053789	    0.017741	    0.011820	    0.029561	    0.014036	    0.006731	    0.020768	    0.019888	    0.007436	    0.027323	    0.031907	    0.020737	    0.052644	    0.005175	    0.003860	    0.009035	   -0.011513	    0.012304	    0.000792	    0.010985	   -0.021250	   -0.010265	    0.040163	    0.016789	    0.056951	    0.013107	    0.006542	    0.019649	    0.018410	    0.006531	    0.024940	    0.028363	    0.013302	    0.041665	    0.020016	    0.025287	    0.045303	    0.000175	    0.002743	    0.002918
     2.850	0	0	    0	    0.007526	    0.003242	    0.010769	    0.011840	    0.000096	    0.011936	    0.009887	    0.003634	    0.013521	    0.011439	    0.007167	    0.018606	    0.023823	    0.018719	    0.042542	    0.012271	   -0.006777	    0.005494	    0.009848	    0.001823	    0.011671	    0.001509	   -0.023543	   -0.022034	    0.036403	    0.013393	    0.049796	    0.015567	    0.012048	    0.027615	    0.014235	    0.006091	    0.020325	    0.017683	    0.008005	    0.025688	    0.030249	    0.018825	    0.049075	    0.001717	    0.004888	    0.006604	   -0.006394	    0.010624	    0.004230	    0.007860	   -0.022164	   -0.014304	    0.037425	    0.015851	    0.053275	    0.011308	    0.006561	    0.017869	    0.017489	    0.005951	    0.023440	    0.025623	    0.012737	    0.038360	    0.019775	    0.023630	    0.043404	    0.003195	   -0.003036	    0.000159
     2.925	0	0	    0	    0.034034	   -0.023299	    0.010735	    0.010639	   -0.000020	    0.010618	    0.009453	    0.003852	    0.013305	    0.014960	    0.002975	    0.017935	    0.032745	    0.008949	    0.041694	    0.012278	   -0.008942	    0.003335	    0.004962	    0.002697	    0.007659	    0.003633	   -0.027579	   -0.023946	    0.035730	    0.010317	    0.046046	    0.014615	    0.012090	    0.026705	    0.013641	    0.006681	    0.020322	    0.017492	    0.006556	    0.024047	    0.031207	    0.015155	    0.046362	    0.006321	   -0.000260	    0.006061	   -0.004544	    0.006486	    0.001942	    0.005874	   -0.023668	   -0.017795	    0.035016	    0.014745	    0.049761	    0.010705	    0.005940	    0.016645	    0.016295	    0.005812	    0.022106	    0.024131	    0.011248	    0.035379	    0.018517	    0.022805	    0.041322	   -0.001804	   -0.000327	   -0.002131
     3.000	0	0	    0	    0.017894	   -0.008850	    0.009044	    0.006293	    0.004158	    0.010450	    0.006385	    0.003358	    0.009743	    0.011040	    0.006107	    0.017146	    0.029998	    0.012108	    0.042106	    0.005201	   -0.001670	    0.003531	   -0.001402	    0.006825	    0.005423	    0.000725	   -0.023453	   -0.022728	    0.032801	    0.010692	    0.043493	    0.014002	    0.011226	    0.025228	    0.012477	    0.007602	    0.020079	    0.016231	    0.006731	    0.022962	    0.026323	    0.018970	    0.045293	   -0.004267	    0.004767	    0.000500	   -0.011926	    0.015306	    0.003380	    0.002884	   -0.024012	   -0.021129	    0.032096	    0.014810	    0.046906	    0.009295	    0.006426	    0.015720	    0.015117	    0.005994	    0.021111	    0.021784	    0.011891	    0.033674	    0.015466	    0.023649	    0.039115	   -0.006929	    0.001385	   -0.005544
     3.075	0	0	    0	   -0.003791	    0.010652	    0.006861	    0.005882	    0.002722	    0.008604	    0.007789	    0.001284	    0.009073	    0.009275	    0.007032	    0.016307	    0.020678	    0.021519	    0.042198	    0.001478	   -0.001296	    0.000182	    0.004061	    0.003947	    0.008008	   -0.002659	   -0.023212	   -0.025871	    0.028205	    0.010918	    0.039123	    0.011943	    0.011702	    0.023645	    0.012430	    0.006869	    0.019299	    0.014462	    0.007552	    0.022014	    0.023747	    0.020015	    0.043762	   -0.001547	    0.003241	    0.001694	   -0.004544	    0.006486	    0.001942	   -0.001657	   -0.022845	   -0.024503	    0.029227	    0.014515	    0.043742	    0.007853	    0.006556	    0.014409	    0.014306	    0.005554	    0.019860	    0.019938	    0.011688	    0.031626	    0.012867	    0.024382	    0.037250	   -0.000469	   -0.002599	   -0.003068
     3.150	0	0	    0	    0.017254	   -0.011040	    0.006214	    0.007754	    0.001814	    0.009568	    0.003582	    0.005303	    0.008885	    0.012373	    0.002474	    0.014847	    0.023199	    0.016062	    0.039260	    0.003631	   -0.000822	    0.002809	    0.001372	    0.007296	    0.008669	   -0.001206	   -0.027057	   -0.028262	    0.027290	    0.010137	    0.037427	    0.012469	    0.011335	    0.023804	    0.013163	    0.006795	    0.019958	    0.014045	    0.006248	    0.020293	    0.020463	    0.020220	    0.040684	   -0.002559	    0.004831	    0.002272	   -0.004779	    0.011002	    0.006224	   -0.001909	   -0.025485	   -0.027394	    0.028542	    0.013325	    0.041867	    0.011059	    0.005859	    0.016917	    0.016058	    0.004682	    0.020740	    0.019308	    0.010700	    0.030008	    0.016230	    0.020889	    0.037119	    0.000207	   -0.001485	   -0.001278
     3.225	0	0	    0	   -0.001899	    0.010210	    0.008310	    0.013125	    0.001944	    0.015069	    0.012004	    0.006008	    0.018012	    0.012714	    0.006605	    0.019320	    0.026666	    0.020545	    0.047210	    0.014556	   -0.002107	    0.012449	   -0.001253	    0.014758	    0.013504	    0.003842	   -0.024687	   -0.020845	    0.048313	    0.009184	    0.057497	    0.020171	    0.011651	    0.031822	    0.018054	    0.007479	    0.025533	    0.018639	    0.005033	    0.023672	    0.032078	    0.018400	    0.050478	   -0.000458	    0.009847	    0.009390	    0.003232	    0.006517	    0.009748	    0.020492	   -0.023193	   -0.002701	    0.044911	    0.014522	    0.059433	    0.015440	    0.007352	    0.022792	    0.021252	    0.005747	    0.026999	    0.027443	    0.012461	    0.039904	    0.024134	    0.024998	    0.049132	    0.001796	   -0.000381	    0.001416
     3.300	0	0	    0	    0.020157	   -0.019616	    0.000541	    0.016506	    0.001350	    0.017856	    0.018345	    0.004115	    0.022459	    0.018035	    0.006846	    0.024881	    0.032081	    0.016848	    0.048929	    0.012851	   -0.001061	    0.011790	    0.012536	   -0.001526	    0.011010	    0.005206	   -0.026186	   -0.020980	    0.051962	    0.014920	    0.066882	    0.021771	    0.012927	    0.034698	    0.019226	    0.008156	    0.027382	    0.021566	    0.007020	    0.028586	    0.034340	    0.021118	    0.055458	    0.007298	    0.004743	    0.012041	   -0.008442	    0.011810	    0.003368	    0.023733	   -0.018922	    0.004811	    0.048230	    0.018633	    0.066863	    0.017354	    0.007426	    0.024780	    0.023785	    0.006079	    0.029864	    0.031778	    0.013392	    0.045170	    0.025323	    0.027121	    0.052443	    0.004060	    0.000469	    0.004529
     3.375	0	0	    0	    0.013050	    0.002271	    0.015322	    0.019048	    0.002389	    0.021437	    0.020807	    0.001695	    0.022502	    0.019903	    0.007279	    0.027182	    0.031084	    0.022876	    0.053959	    0.013912	    0.000365	    0.014278	    0.012444	   -0.002016	    0.010427	    0.004932	   -0.024251	   -0.019319	    0.053536	    0.017881	    0.071417	    0.023296	    0.012664	    0.035959	    0.020222	    0.008654	    0.028876	    0.022812	    0.007465	    0.030277	    0.036980	    0.020257	    0.057237	    0.006818	    0.007620	    0.014438	    0.001596	    0.005373	    0.006969	    0.025610	   -0.017912	    0.007698	    0.050184	    0.018660	    0.068844	    0.017409	    0.008098	    0.025507	    0.024485	    0.006592	    0.031077	    0.032920	    0.013600	    0.046520	    0.025972	    0.027077	    0.053050	    0.005095	    0.002174	    0.007269
     3.450	0	0	    0	    0.031678	   -0.019319	    0.012359	    0.017201	    0.003014	    0.020215	    0.020790	    0.004253	    0.025044	    0.021816	    0.005522	    0.027338	    0.037905	    0.016184	    0.054088	    0.021058	   -0.006901	    0.014157	    0.018167	   -0.004311	    0.013856	    0.008694	   -0.027418	   -0.018724	    0.052302	    0.015670	    0.067973	    0.022904	    0.011201	    0.034105	    0.020864	    0.008414	    0.029278	    0.023607	    0.007404	    0.031011	    0.037923	    0.018518	    0.056442	    0.009659	    0.004108	    0.013767	    0.000515	    0.009901	    0.010416	    0.022155	   -0.018928	    0.003227	    0.048165	    0.018110	    0.066275	    0.017108	    0.008015	    0.025122	    0.024868	    0.006287	    0.031156	    0.031958	    0.013453	    0.045411	    0.026175	    0.024804	    0.050979	    0.001186	    0.004463	    0.005648
     3.525	0	0	    0	    0.038607	   -0.024037	    0.014570	    0.022746	   -0.000235	    0.022511	    0.021461	    0.001487	    0.022948	    0.021864	    0.007192	    0.029056	    0.034831	    0.020879	    0.055711	    0.025413	   -0.008528	    0.016884	    0.023760	   -0.007259	    0.016501	    0.009139	   -0.025699	   -0.016560	    0.052749	    0.016021	    0.068770	    0.022656	    0.012329	    0.034984	    0.021294	    0.009090	    0.030384	    0.023541	    0.007102	    0.030643	    0.037403	    0.020532	    0.057935	    0.012929	    0.000657	    0.013585	    0.001976	    0.009315	    0.011291	    0.022906	   -0.018688	    0.004218	    0.048592	    0.017995	    0.066587	    0.017314	    0.008329	    0.025643	    0.025121	    0.006421	    0.031542	    0.031784	    0.012873	    0.044657	    0.025568	    0.025347	    0.050915	    0.000695	    0.006442	    0.007138
     3.600	0	0	    0	    0.032451	   -0.020292	    0.012159	    0.017594	    0.002568	    0.020162	    0.016888	    0.011995	    0.028883	    0.023142	    0.007183	    0.030324	    0.039262	    0.016459	    0.055721	    0.015260	    0.000322	    0.015582	    0.018173	   -0.004868	    0.013305	    0.013298	   -0.030272	   -0.016974	    0.051574	    0.016134	    0.067708	    0.021716	    0.012204	    0.033920	    0.022137	    0.009358	    0.031495	    0.024090	    0.006968	    0.031058	    0.038012	    0.019046	    0.057058	    0.007713	    0.005604	    0.013317	    0.003040	    0.004794	    0.007834	    0.021757	   -0.018658	    0.003099	    0.047192	    0.017814	    0.065007	    0.016764	    0.008280	    0.025045	    0.024811	    0.006569	    0.031379	    0.031289	    0.012713	    0.044002	    0.024919	    0.026040	    0.050959	    0.004468	    0.000663	    0.005130
     3.675	0	0	    0	    0.030456	   -0.015753	    0.014703	    0.018708	    0.001350	    0.020058	    0.019605	    0.003185	    0.022790	    0.022812	    0.006941	    0.029753	    0.037298	    0.018570	    0.055868	    0.013431	    0.003155	    0.016586	    0.020588	   -0.001961	    0.018627	    0.011576	   -0.029238	   -0.017662	    0.048444	    0.016585	    0.065028	    0.020463	    0.012651	    0.033114	    0.021038	    0.010352	    0.031390	    0.023951	    0.007309	    0.031260	    0.035875	    0.020715	    0.056590	    0.004331	    0.006869	    0.011200	   -0.006673	    0.015201	    0.008528	    0.017326	   -0.018557	   -0.001231	    0.044889	    0.017989	    0.062877	    0.015918	    0.008273	    0.024191	    0.024060	    0.006699	    0.030759	    0.030539	    0.011806	    0.042344	    0.022903	    0.026155	    0.049058	   -0.004870	    0.006889	    0.002019
     3.750	0	0	    0	    0.031920	   -0.012524	    0.019396	    0.012923	    0.007091	    0.020014	    0.010520	    0.010702	    0.021222	    0.021484	    0.007808	    0.029292	    0.038868	    0.020123	    0.058990	    0.005741	    0.008938	    0.014679	   -0.002537	    0.022743	    0.020206	    0.011130	   -0.026840	   -0.015710	    0.044740	    0.017430	    0.062170	    0.018973	    0.013029	    0.032003	    0.020548	    0.010470	    0.031018	    0.023253	    0.007284	    0.030537	    0.033683	    0.022440	    0.056123	   -0.001890	    0.013611	    0.011721	   -0.013276	    0.026849	    0.013573	    0.015119	   -0.018411	   -0.003291	    0.042510	    0.017268	    0.059778	    0.014562	    0.008579	    0.023141	    0.023039	    0.006593	    0.029632	    0.027614	    0.012909	    0.040523	    0.020736	    0.026705	    0.047441	   -0.007821	    0.011633	    0.003812
     3.825	0	0	    0	    0.006957	    0.008938	    0.015894	    0.014231	    0.004369	    0.018599	    0.017144	    0.004646	    0.021790	    0.019112	    0.009738	    0.028850	    0.029624	    0.025881	    0.055505	    0.015106	   -0.004398	    0.010708	    0.010762	    0.000760	    0.011522	    0.002969	   -0.021997	   -0.019027	    0.043075	    0.014501	    0.057575	    0.018563	    0.011867	    0.030429	    0.020049	    0.010586	    0.030634	    0.021860	    0.007548	    0.029409	    0.031708	    0.021157	    0.052864	    0.004878	    0.002254	    0.007132	   -0.004154	    0.009129	    0.004975	    0.013643	   -0.021613	   -0.007969	    0.039592	    0.016344	    0.055936	    0.013502	    0.008199	    0.021701	    0.021961	    0.006383	    0.028344	    0.026681	    0.011492	    0.038173	    0.019797	    0.024616	    0.044413	   -0.005609	    0.004007	   -0.001602
     3.900	0	0	    0	    0.015819	    0.010921	    0.026741	    0.012645	    0.005410	    0.018055	    0.018848	    0.001583	    0.020430	    0.020166	    0.007743	    0.027910	    0.031773	    0.024781	    0.056555	    0.009082	    0.002033	    0.011114	    0.005453	    0.011370	    0.016823	    0.002540	   -0.022132	   -0.019592	    0.039160	    0.016051	    0.055210	    0.016637	    0.011794	    0.028431	    0.019784	    0.010652	    0.030436	    0.020738	    0.007520	    0.028258	    0.030337	    0.021495	    0.051833	    0.004587	    0.004538	    0.009125	    0.004422	    0.009841	    0.014263	    0.011213	   -0.022053	   -0.010840	    0.037450	    0.015482	    0.052932	    0.012924	    0.007648	    0.020572	    0.021095	    0.005795	    0.026891	    0.024169	    0.011888	    0.036057	    0.018579	    0.024700	    0.043279	   -0.004515	    0.004273	   -0.000242
     3.975	0	0	    0	    0.016773	   -0.001446	    0.015327	    0.010680	    0.004618	    0.015298	    0.011767	    0.004406	    0.016173	    0.019252	    0.006778	    0.026031	    0.029158	    0.023352	    0.052510	    0.001768	    0.004184	    0.005952	    0.009613	    0.001221	    0.010834	    0.002520	   -0.023010	   -0.020491	    0.038147	    0.013426	    0.051574	    0.014463	    0.012233	    0.026696	    0.018666	    0.010876	    0.029542	    0.019698	    0.006800	    0.026498	    0.029291	    0.020465	    0.049756	   -0.000733	    0.005117	    0.004384	   -0.007573	    0.013267	    0.005694	    0.009265	   -0.023491	   -0.014226	    0.035254	    0.014352	    0.049606	    0.011172	    0.007626	    0.018797	    0.019789	    0.005665	    0.025454	    0.023180	    0.010288	    0.033468	    0.017558	    0.023145	    0.040703	   -0.005149	    0.001719	   -0.003431
     4.050	0	0	    0	    0.021810	   -0.006806	    0.015005	    0.013181	    0.001119	    0.014300	    0.011170	    0.004229	    0.015399	    0.016689	    0.008945	    0.025633	    0.029298	    0.021135	    0.050434	    0.005365	    0.000180	    0.005545	    0.014661	   -0.006198	    0.008463	    0.003986	   -0.027804	   -0.023817	    0.034723	    0.013078	    0.047801	    0.014125	    0.011501	    0.025626	    0.018184	    0.010696	    0.028880	    0.018579	    0.006791	    0.025370	    0.026683	    0.020409	    0.047092	    0.001068	    0.004395	    0.005463	   -0.003348	    0.008981	    0.005633	    0.004870	   -0.023355	   -0.018486	    0.031936	    0.014925	    0.046860	    0.010011	    0.007372	    0.017383	    0.018415	    0.005419	    0.023834	    0.021135	    0.010329	    0.031464	    0.015352	    0.023296	    0.038648	   -0.004720	    0.000498	   -0.004223
     4.125	0	0	    0	    0.013882	   -0.000816	    0.013066	    0.012839	   -0.000586	    0.012254	    0.016116	   -0.002247	    0.013869	    0.017205	    0.006971	    0.024175	    0.028299	    0.020450	    0.048750	    0.007683	   -0.004223	    0.003460	    0.018725	   -0.002959	    0.015765	    0.003715	   -0.027911	   -0.024195	    0.032752	    0.011377	    0.044129	    0.012380	    0.011452	    0.023832	    0.017913	    0.010653	    0.028566	    0.016248	    0.007410	    0.023658	    0.022847	    0.021284	    0.044130	    0.002012	    0.000678	    0.002690	   -0.004341	    0.015607	    0.011266	    0.002193	   -0.024571	   -0.022378	    0.030027	    0.013535	    0.043562	    0.011149	    0.006557	    0.017706	    0.018718	    0.004859	    0.023577	    0.018013	    0.010870	    0.028882	    0.013671	    0.022530	    0.036201	   -0.001275	   -0.001235	   -0.002509
     4.200	0	0	    0	    0.041920	   -0.023111	    0.018809	    0.019186	    0.001281	    0.020468	    0.024127	   -0.000855	    0.023271	    0.022751	    0.004603	    0.027354	    0.039117	    0.015443	    0.054560	    0.014083	    0.000662	    0.014745	    0.014998	    0.004727	    0.019725	    0.006851	   -0.028945	   -0.022094	    0.051386	    0.008532	    0.059918	    0.020750	    0.010149	    0.030899	    0.023044	    0.010756	    0.033801	    0.020125	    0.004768	    0.024894	    0.033231	    0.016346	    0.049577	    0.001622	    0.008621	    0.010244	    0.000778	    0.012282	    0.013059	    0.023879	   -0.025959	   -0.002080	    0.043450	    0.013986	    0.057436	    0.015289	    0.008466	    0.023755	    0.024001	    0.005386	    0.029386	    0.027001	    0.009222	    0.036222	    0.023527	    0.023183	    0.046710	    0.002042	    0.000585	    0.002627
     4.275	0	0	    0	    0.026611	   -0.012910	    0.013700	    0.016598	    0.007460	    0.024058	    0.027355	    0.001238	    0.028593	    0.025941	    0.006608	    0.032549	    0.034441	    0.023744	    0.058185	    0.019236	   -0.000276	    0.018960	    0.020588	   -0.001961	    0.018627	    0.007472	   -0.024961	   -0.017489	    0.055140	    0.015984	    0.071124	    0.022646	    0.011837	    0.034483	    0.024444	    0.011440	    0.035884	    0.023117	    0.006525	    0.029642	    0.034623	    0.021228	    0.055851	    0.009597	    0.004892	    0.014489	    0.000687	    0.010673	    0.011360	    0.025130	   -0.017606	    0.007524	    0.047032	    0.019064	    0.066095	    0.016961	    0.008233	    0.025194	    0.026145	    0.005937	    0.032081	    0.029595	    0.012259	    0.041854	    0.024511	    0.025078	    0.049589	    0.002246	    0.001905	    0.004151
     4.350	0	0	    0	    0.018204	    0.002798	    0.021003	    0.019342	    0.005865	    0.025207	    0.025801	    0.005084	    0.030885	    0.025936	    0.010136	    0.036072	    0.038743	    0.022349	    0.061092	    0.012341	    0.003959	    0.016299	    0.009583	    0.011748	    0.021332	    0.008346	   -0.023551	   -0.015204	    0.054393	    0.019991	    0.074384	    0.023308	    0.011827	    0.035134	    0.025896	    0.011837	    0.037733	    0.024703	    0.006977	    0.031679	    0.034228	    0.023932	    0.058160	    0.007594	    0.004402	    0.011996	    0.005524	    0.012571	    0.018095	    0.027216	   -0.016948	    0.010268	    0.048506	    0.019741	    0.068247	    0.017316	    0.008779	    0.026094	    0.027116	    0.006286	    0.033402	    0.029686	    0.014158	    0.043844	    0.024064	    0.026633	    0.050696	    0.003755	    0.000597	    0.004352
     4.425	0	0	    0	    0.033564	   -0.010487	    0.023077	    0.020457	    0.004842	    0.025299	    0.020246	    0.011366	    0.031612	    0.027761	    0.008778	    0.036539	    0.042172	    0.018833	    0.061005	    0.021521	   -0.003658	    0.017863	    0.013724	    0.008464	    0.022187	    0.010811	   -0.026440	   -0.015629	    0.052804	    0.019537	    0.072341	    0.022557	    0.011627	    0.034183	    0.025125	    0.012601	    0.037725	    0.024873	    0.007139	    0.032012	    0.035205	    0.021225	    0.056430	    0.006819	    0.006633	    0.013452	    0.003137	    0.012184	    0.015322	    0.023773	   -0.017218	    0.006555	    0.046566	    0.019222	    0.065789	    0.017059	    0.008365	    0.025423	    0.026678	    0.006284	    0.032962	    0.030331	    0.012069	    0.042400	    0.024163	    0.024697	    0.048860	   -0.001151	    0.005757	    0.004606
     4.500	0	0	    0	    0.050069	   -0.033428	    0.016641	    0.017551	    0.005684	    0.023236	    0.021251	    0.009436	    0.030687	    0.029756	    0.006108	    0.035864	    0.041068	    0.018182	    0.059249	    0.011095	    0.003816	    0.014911	    0.019786	    0.002613	    0.022400	    0.012203	   -0.029117	   -0.016914	    0.051924	    0.018670	    0.070593	    0.021959	    0.011940	    0.033900	    0.025361	    0.012771	    0.038132	    0.024771	    0.007040	    0.031811	    0.035059	    0.020245	    0.055303	    0.004586	    0.005517	    0.010103	   -0.004308	    0.015295	    0.010987	    0.022644	   -0.017396	    0.005248	    0.046115	    0.019049	    0.065163	    0.016803	    0.008804	    0.025607	    0.027094	    0.006149	    0.033243	    0.029566	    0.012454	    0.042021	    0.022873	    0.024741	    0.047614	   -0.001586	   -0.000066	   -0.001652
     4.575	0	0	    0	    0.030630	   -0.014943	    0.015687	    0.019760	    0.004757	    0.024517	    0.019467	    0.011344	    0.030810	    0.026847	    0.010751	    0.037598	    0.041086	    0.020617	    0.061703	    0.010775	    0.006920	    0.017695	    0.000981	    0.025120	    0.026101	    0.011162	   -0.026883	   -0.015720	    0.050295	    0.019690	    0.069985	    0.020925	    0.011560	    0.032485	    0.026295	    0.012376	    0.038671	    0.024871	    0.007060	    0.031931	    0.033592	    0.022439	    0.056031	    0.003879	    0.008924	    0.012803	    0.006068	    0.010024	    0.016092	    0.023607	   -0.018549	    0.005058	    0.045062	    0.019248	    0.064310	    0.016589	    0.008563	    0.025152	    0.026939	    0.005974	    0.032913	    0.028387	    0.013366	    0.041753	    0.022629	    0.025323	    0.047951	    0.001231	    0.001965	    0.003196
     4.650	0	0	    0	    0.015242	    0.005566	    0.020808	    0.022090	    0.001327	    0.023417	    0.028266	    0.000717	    0.028983	    0.026288	    0.011730	    0.038018	    0.035496	    0.026903	    0.062399	    0.019694	   -0.003051	    0.016643	    0.023136	   -0.002268	    0.020868	    0.004591	   -0.021543	   -0.016953	    0.047805	    0.020947	    0.068751	    0.021430	    0.010576	    0.032006	    0.026448	    0.012715	    0.039163	    0.023334	    0.007669	    0.031002	    0.032051	    0.023569	    0.055620	    0.004514	    0.006304	    0.010818	    0.004230	    0.013942	    0.018172	    0.019698	   -0.017772	    0.001926	    0.042877	    0.019681	    0.062557	    0.016418	    0.008494	    0.024912	    0.026330	    0.005841	    0.032171	    0.027859	    0.012431	    0.040290	    0.022209	    0.024325	    0.046534	   -0.003814	    0.002584	   -0.001230
     4.725	0	0	    0	    0.012250	    0.011355	    0.023604	    0.017458	    0.005968	    0.023426	    0.021546	    0.004912	    0.026458	    0.025622	    0.011218	    0.036841	    0.036103	    0.026116	    0.062219	    0.015001	   -0.001065	    0.013937	    0.004124	    0.015148	    0.019272	    0.004331	   -0.021442	   -0.017111	    0.047226	    0.018657	    0.065883	    0.019124	    0.011400	    0.030524	    0.025992	    0.012711	    0.038703	    0.023072	    0.007225	    0.030298	    0.031113	    0.022923	    0.054036	    0.002613	    0.006971	    0.009584	    0.002013	    0.015823	    0.017836	    0.016335	   -0.017779	   -0.001444	    0.040522	    0.018835	    0.059357	    0.015047	    0.008479	    0.023526	    0.025255	    0.005850	    0.031104	    0.025919	    0.012753	    0.038672	    0.018780	    0.026395	    0.045176	   -0.000485	    0.000194	   -0.000291
     4.800	0	0	    0	    0.001830	    0.020453	    0.022283	    0.015076	    0.004964	    0.020040	    0.021859	    0.004198	    0.026058	    0.025558	    0.009799	    0.035357	    0.036347	    0.027398	    0.063745	    0.013342	    0.002689	    0.016031	    0.014255	    0.009875	    0.024131	    0.004798	   -0.022946	   -0.018148	    0.042122	    0.018402	    0.060524	    0.017766	    0.011150	    0.028916	    0.025083	    0.012673	    0.037756	    0.021743	    0.007317	    0.029060	    0.027439	    0.024293	    0.051733	    0.000750	    0.008651	    0.009401	    0.009206	    0.009608	    0.018813	    0.012973	   -0.018555	   -0.005583	    0.037967	    0.017658	    0.055625	    0.013875	    0.008384	    0.022259	    0.024212	    0.005517	    0.029729	    0.023736	    0.012710	    0.036446	    0.018781	    0.023741	    0.042522	   -0.005897	    0.002368	   -0.003529
     4.875	0	0	    0	    0.031163	   -0.011553	    0.019609	    0.015160	    0.004646	    0.019806	    0.019794	    0.001361	    0.021156	    0.024314	    0.009872	    0.034186	    0.036558	    0.022650	    0.059208	    0.009005	    0.001565	    0.010569	    0.017179	   -0.000050	    0.017130	    0.006216	   -0.024965	   -0.018750	    0.040333	    0.017500	    0.057833	    0.016682	    0.010546	    0.027228	    0.023885	    0.012831	    0.036716	    0.020893	    0.006631	    0.027524	    0.026237	    0.022720	    0.048958	   -0.004146	    0.011222	    0.007076	    0.000955	    0.014041	    0.014996	    0.011222	   -0.020514	   -0.009292	    0.035083	    0.017560	    0.052643	    0.012934	    0.007935	    0.020870	    0.022826	    0.005400	    0.028226	    0.021998	    0.012336	    0.034334	    0.016533	    0.024721	    0.041254	    0.001984	   -0.004639	   -0.002655
     4.950	0	0	    0	    0.031692	   -0.012227	    0.019465	    0.014594	    0.002281	    0.016875	    0.016030	    0.006051	    0.022081	    0.024017	    0.009051	    0.033068	    0.036728	    0.020141	    0.056869	    0.005127	    0.002123	    0.007250	    0.006371	    0.010301	    0.016673	    0.006802	   -0.028653	   -0.021851	    0.035669	    0.018757	    0.054426	    0.015389	    0.010684	    0.026073	    0.023221	    0.013404	    0.036625	    0.019576	    0.006906	    0.026482	    0.024719	    0.022211	    0.046931	   -0.001568	    0.006157	    0.004589	   -0.006478	    0.016651	    0.010173	    0.009238	   -0.021348	   -0.012110	    0.033617	    0.016823	    0.050440	    0.011468	    0.008188	    0.019656	    0.021681	    0.005368	    0.027049	    0.020694	    0.011889	    0.032583	    0.014011	    0.025470	    0.039482	   -0.014009	    0.005606	   -0.008403
     5.025	0	0	    0	    0.023693	   -0.010215	    0.013478	    0.012705	    0.003927	    0.016633	    0.016291	    0.006696	    0.022986	    0.025025	    0.007897	    0.032922	    0.034192	    0.022482	    0.056674	    0.004003	    0.005151	    0.009153	    0.010743	    0.011283	    0.022027	    0.005678	   -0.027461	   -0.021783	    0.032388	    0.019013	    0.051400	    0.014273	    0.010224	    0.024497	    0.022741	    0.013225	    0.035965	    0.018593	    0.006482	    0.025075	    0.021249	    0.025428	    0.046677	   -0.006630	    0.012382	    0.005753	    0.005956	    0.010205	    0.016161	    0.004008	   -0.018788	   -0.014780	    0.030312	    0.017024	    0.047336	    0.010547	    0.007495	    0.018042	    0.020456	    0.005152	    0.025607	    0.017809	    0.013404	    0.031213	    0.012094	    0.026895	    0.038989	    0.001440	   -0.006490	   -0.005050
     5.100	0	0	    0	    0.020790	   -0.009538	    0.011252	    0.011808	    0.002312	    0.014120	    0.015860	    0.003413	    0.019273	    0.020225	    0.009136	    0.029361	    0.033124	    0.020996	    0.054121	    0.005252	    0.000365	    0.005617	    0.007945	    0.007361	    0.015306	    0.002494	   -0.025235	   -0.022741	    0.033514	    0.014483	    0.047997	    0.014799	    0.009161	    0.023960	    0.023108	    0.012439	    0.035547	    0.016935	    0.006369	    0.023305	    0.022174	    0.020092	    0.042265	    0.001650	    0.003723	    0.005373	    0.001513	    0.010516	    0.012029	    0.006688	   -0.024559	   -0.017871	    0.030191	    0.014984	    0.045174	    0.012687	    0.006730	    0.019417	    0.021984	    0.004292	    0.026276	    0.018259	    0.011226	    0.029485	    0.013809	    0.024161	    0.037971	   -0.004108	    0.000951	   -0.003157
     5.175	0	0	    0	    0.021848	   -0.001827	    0.020021	    0.017167	    0.005469	    0.022636	    0.025738	    0.004517	    0.030255	    0.027673	    0.007665	    0.035338	    0.035158	    0.020482	    0.055641	    0.003598	    0.004092	    0.007690	    0.017736	   -0.002403	    0.015333	    0.006124	   -0.027573	   -0.021449	    0.052473	    0.014084	    0.066558	    0.020353	    0.010430	    0.030784	    0.027723	    0.013149	    0.040872	    0.020609	    0.005639	    0.026249	    0.029465	    0.019465	    0.048930	   -0.000945	    0.008618	    0.007674	   -0.002685	    0.016477	    0.013792	    0.024517	   -0.020364	    0.004153	    0.042949	    0.017652	    0.060601	    0.016502	    0.007770	    0.024272	    0.026278	    0.005037	    0.031315	    0.025718	    0.012134	    0.037852	    0.019186	    0.026445	    0.045631	   -0.001323	   -0.000520	   -0.001842
     5.250	0	0	    0	    0.017720	    0.003409	    0.021129	    0.019767	    0.005695	    0.025462	    0.029598	    0.004258	    0.033855	    0.028229	    0.010232	    0.038461	    0.033225	    0.029706	    0.062931	    0.007372	    0.007411	    0.014783	    0.014900	    0.007992	    0.022892	    0.004589	   -0.021086	   -0.016497	    0.051799	    0.021790	    0.073589	    0.021508	    0.010961	    0.032469	    0.029066	    0.013599	    0.042664	    0.023089	    0.007070	    0.030159	    0.030336	    0.023344	    0.053681	    0.000245	    0.011541	    0.011786	    0.003224	    0.012821	    0.016045	    0.025066	   -0.015438	    0.009628	    0.045116	    0.020551	    0.065667	    0.016893	    0.008381	    0.025274	    0.027796	    0.005595	    0.033391	    0.027091	    0.014691	    0.041782	    0.021886	    0.026115	    0.048001	    0.004432	   -0.002845	    0.001587
     5.325	0	0	    0	    0.025283	   -0.012185	    0.013098	    0.016779	    0.006854	    0.023633	    0.021760	    0.010759	    0.032519	    0.028942	    0.011783	    0.040725	    0.033390	    0.029923	    0.063313	    0.004970	    0.008229	    0.013199	   -0.001900	    0.020605	    0.018705	    0.004737	   -0.022186	   -0.017449	    0.053192	    0.020261	    0.073453	    0.021346	    0.011726	    0.033071	    0.028754	    0.014655	    0.043410	    0.024036	    0.007246	    0.031283	    0.031027	    0.023739	    0.054766	    0.004587	    0.004538	    0.009125	   -0.004725	    0.019136	    0.014411	    0.024787	   -0.015045	    0.009743	    0.045551	    0.021155	    0.066707	    0.017230	    0.008434	    0.025664	    0.027826	    0.005858	    0.033684	    0.027314	    0.015011	    0.042324	    0.020596	    0.027875	    0.048472	   -0.003729	    0.002197	   -0.001531
     5.400	0	0	    0	    0.022275	   -0.007422	    0.014853	    0.017911	    0.004721	    0.022632	    0.022208	    0.007333	    0.029541	    0.028445	    0.009955	    0.038401	    0.040545	    0.024116	    0.064660	    0.007829	    0.006864	    0.014693	    0.002561	    0.018340	    0.020901	    0.006720	   -0.023781	   -0.017062	    0.048900	    0.021972	    0.070872	    0.020843	    0.010934	    0.031777	    0.029187	    0.014181	    0.043368	    0.023770	    0.007539	    0.031308	    0.028480	    0.026160	    0.054641	    0.002282	    0.008135	    0.010417	    0.006628	    0.015330	    0.021957	    0.022173	   -0.015690	    0.006483	    0.043340	    0.020256	    0.063596	    0.017395	    0.008291	    0.025686	    0.027823	    0.005788	    0.033611	    0.026900	    0.014046	    0.040946	    0.019829	    0.028320	    0.048149	   -0.001090	    0.005022	    0.003932
     5.475	0	0	    0	    0.013312	    0.009988	    0.023299	    0.023723	   -0.000147	    0.023576	    0.025729	    0.007110	    0.032839	    0.029651	    0.011710	    0.041361	    0.038657	    0.026503	    0.065160	    0.013111	   -0.000307	    0.012804	    0.021663	   -0.005713	    0.015950	    0.007166	   -0.025941	   -0.018775	    0.051509	    0.020813	    0.072322	    0.022136	    0.010467	    0.032603	    0.030360	    0.014504	    0.044864	    0.024443	    0.007296	    0.031740	    0.030415	    0.023879	    0.054294	    0.007101	    0.001407	    0.008507	    0.003255	    0.013792	    0.017047	    0.023018	   -0.016523	    0.006495	    0.044105	    0.021160	    0.065265	    0.017739	    0.008237	    0.025976	    0.028715	    0.005488	    0.034203	    0.026424	    0.014596	    0.041019	    0.020326	    0.027575	    0.047900	   -0.000357	    0.001894	    0.001537
     5.550	0	0	    0	    0.027539	   -0.006988	    0.020551	    0.019796	    0.004372	    0.024168	    0.022606	    0.009390	    0.031997	    0.030442	    0.011117	    0.041559	    0.040961	    0.024780	    0.065740	    0.013631	    0.001207	    0.014838	    0.010797	    0.007824	    0.018621	    0.006835	   -0.025294	   -0.018460	    0.049558	    0.021520	    0.071079	    0.021504	    0.010385	    0.031888	    0.030284	    0.014876	    0.045160	    0.023999	    0.007976	    0.031974	    0.029994	    0.024951	    0.054946	    0.005424	    0.002521	    0.007944	    0.010066	    0.010928	    0.020994	    0.021636	   -0.016679	    0.004957	    0.042607	    0.021276	    0.063883	    0.017439	    0.008484	    0.025923	    0.028532	    0.005401	    0.033933	    0.027103	    0.013545	    0.040647	    0.020224	    0.027256	    0.047480	    0.001628	    0.000397	    0.002025
     5.625	0	0	    0	    0.025500	   -0.008456	    0.017045	    0.015519	    0.006213	    0.021733	    0.017532	    0.010547	    0.028078	    0.030893	    0.010278	    0.041171	    0.038816	    0.025889	    0.064705	    0.010769	    0.002579	    0.013348	    0.011064	    0.008420	    0.019484	    0.005117	   -0.023805	   -0.018688	    0.048087	    0.020808	    0.068895	    0.019486	    0.011176	    0.030662	    0.030296	    0.014598	    0.044894	    0.023030	    0.008084	    0.031115	    0.029069	    0.025117	    0.054185	   -0.000240	    0.006331	    0.006090	    0.001445	    0.018400	    0.019845	    0.017345	   -0.014970	    0.002375	    0.040858	    0.021030	    0.061888	    0.016869	    0.008411	    0.025280	    0.027181	    0.005926	    0.033108	    0.025176	    0.013714	    0.038890	    0.018339	    0.027564	    0.045904	    0.000170	    0.000981	    0.001152
     5.700	0	0	    0	    0.014409	    0.008609	    0.023017	    0.020434	    0.001184	    0.021618	    0.031252	   -0.001713	    0.029539	    0.028000	    0.012416	    0.040416	    0.033921	    0.030818	    0.064739	    0.016183	   -0.005192	    0.010991	    0.023482	   -0.001529	    0.021953	    0.000942	   -0.018977	   -0.018035	    0.043876	    0.023652	    0.067528	    0.018796	    0.010665	    0.029460	    0.029960	    0.014657	    0.044617	    0.021937	    0.008430	    0.030367	    0.025950	    0.027849	    0.053799	    0.002596	    0.001936	    0.004532	    0.006881	    0.018085	    0.024965	    0.016415	   -0.016983	   -0.000569	    0.038576	    0.020854	    0.059429	    0.016266	    0.008198	    0.024464	    0.027026	    0.005261	    0.032287	    0.025155	    0.012532	    0.037686	    0.017231	    0.028117	    0.045348	    0.000501	    0.001556	    0.002057
     5.775	0	0	    0	    0.006496	    0.016603	    0.023098	    0.017131	    0.003122	    0.020253	    0.026103	    0.003406	    0.029509	    0.024956	    0.014641	    0.039597	    0.033110	    0.030313	    0.063423	    0.012421	   -0.002106	    0.010314	    0.019624	   -0.000860	    0.018764	   -0.002822	   -0.019642	   -0.022464	    0.042756	    0.020163	    0.062919	    0.017234	    0.010620	    0.027854	    0.027962	    0.015621	    0.043583	    0.020644	    0.008526	    0.029169	    0.027782	    0.023005	    0.050787	    0.001075	    0.002455	    0.003529	   -0.006799	    0.022111	    0.015312	    0.013114	   -0.018797	   -0.005683	    0.035909	    0.019854	    0.055764	    0.015323	    0.007835	    0.023158	    0.025645	    0.005229	    0.030874	    0.022690	    0.013073	    0.035762	    0.015571	    0.027871	    0.043442	   -0.006669	    0.002677	   -0.003992
     5.850	0	0	    0	    0.024067	   -0.005638	    0.018429	    0.014651	    0.004200	    0.018851	    0.018377	    0.007248	    0.025625	    0.027478	    0.010222	    0.037700	    0.034864	    0.026044	    0.060908	    0.008055	    0.000590	    0.008646	    0.009848	    0.001823	    0.011671	   -0.000068	   -0.024024	   -0.024092	    0.043170	    0.016433	    0.059603	    0.015074	    0.011584	    0.026658	    0.028029	    0.015082	    0.043111	    0.019982	    0.007952	    0.027934	    0.024925	    0.023720	    0.048645	   -0.000476	    0.003778	    0.003302	   -0.002699	    0.015995	    0.013296	    0.011520	   -0.020209	   -0.008689	    0.033783	    0.019540	    0.053323	    0.014474	    0.007841	    0.022315	    0.024542	    0.005270	    0.029811	    0.021367	    0.012667	    0.034034	    0.015941	    0.025671	    0.041613	   -0.007226	    0.003250	   -0.003976
     5.925	0	0	    0	    0.028531	   -0.014329	    0.014201	    0.014112	    0.003242	    0.017354	    0.017258	    0.006732	    0.023990	    0.025622	    0.011209	    0.036831	    0.033961	    0.025570	    0.059531	    0.002008	    0.004946	    0.006954	    0.006881	    0.011713	    0.018595	    0.002190	   -0.026655	   -0.024466	    0.038982	    0.017967	    0.056949	    0.014943	    0.010125	    0.025069	    0.027163	    0.015166	    0.042329	    0.018611	    0.008029	    0.026641	    0.023778	    0.023626	    0.047405	   -0.003477	    0.003702	    0.000225	   -0.000250	    0.017531	    0.017281	    0.007171	   -0.018215	   -0.011044	    0.031703	    0.019116	    0.050819	    0.013520	    0.007520	    0.021040	    0.023181	    0.005345	    0.028526	    0.019121	    0.013086	    0.032208	    0.013785	    0.026503	    0.040288	   -0.004589	    0.001144	   -0.003445
     6.000	0	0	    0	    0.019740	   -0.008233	    0.011507	    0.011852	    0.002616	    0.014468	    0.019977	    0.003036	    0.023013	    0.025389	    0.010138	    0.035527	    0.036883	    0.022253	    0.059135	    0.008214	   -0.004923	    0.003291	    0.016166	   -0.009045	    0.007121	   -0.002285	   -0.025023	   -0.027308	    0.036706	    0.016879	    0.053585	    0.013147	    0.010701	    0.023847	    0.026887	    0.014707	    0.041594	    0.017717	    0.007617	    0.025334	    0.022324	    0.023868	    0.046192	    0.002076	   -0.002005	    0.000070	   -0.002852	    0.014711	    0.011860	    0.005448	   -0.020299	   -0.014851	    0.029432	    0.018694	    0.048126	    0.012333	    0.007499	    0.019832	    0.022549	    0.004679	    0.027228	    0.017099	    0.013456	    0.030555	    0.011418	    0.026883	    0.038301	   -0.004803	   -0.000861	   -0.005664
     6.075	0	0	    0	    0.009559	    0.005647	    0.015206	    0.015651	    0.004611	    0.020261	    0.025248	    0.004498	    0.029746	    0.024355	    0.011591	    0.035946	    0.030467	    0.027193	    0.057660	    0.015486	   -0.006973	    0.008513	    0.013081	    0.003186	    0.016266	   -0.005274	   -0.020574	   -0.025848	    0.047106	    0.012271	    0.059376	    0.018841	    0.008891	    0.027732	    0.030587	    0.015144	    0.045731	    0.017257	    0.007452	    0.024709	    0.028689	    0.017753	    0.046442	    0.004656	   -0.002174	    0.002482	   -0.005560	    0.027126	    0.021567	    0.020090	   -0.024344	   -0.004254	    0.037943	    0.015909	    0.053853	    0.017745	    0.007299	    0.025043	    0.027417	    0.004522	    0.031938	    0.022852	    0.010358	    0.033210	    0.019786	    0.023781	    0.043567	   -0.000798	    0.003133	    0.002335
     6.150	0	0	    0	    0.005477	    0.008843	    0.014320	    0.020747	    0.006493	    0.027241	    0.037087	   -0.000492	    0.036594	    0.031595	    0.009543	    0.041137	    0.035898	    0.027573	    0.063470	    0.013972	    0.002436	    0.016408	    0.007813	    0.010634	    0.018447	    0.003105	   -0.023302	   -0.020197	    0.056851	    0.021200	    0.078051	    0.023425	    0.011284	    0.034709	    0.033504	    0.015397	    0.048901	    0.023040	    0.007614	    0.030655	    0.031841	    0.023176	    0.055017	    0.004587	    0.004538	    0.009125	    0.004047	    0.013163	    0.017210	    0.026654	   -0.013644	    0.013010	    0.047393	    0.022011	    0.069404	    0.020354	    0.008092	    0.028447	    0.030843	    0.005406	    0.036248	    0.028110	    0.014171	    0.042281	    0.021841	    0.028369	    0.050211	    0.003581	    0.002433	    0.006014
     6.225	0	0	    0	    0.025219	   -0.006086	    0.019133	    0.022378	    0.006126	    0.028504	    0.033529	    0.007570	    0.041099	    0.035643	    0.009927	    0.045570	    0.040819	    0.026217	    0.067036	    0.014864	    0.002947	    0.017811	    0.002287	    0.017518	    0.019805	    0.005956	   -0.024864	   -0.018909	    0.060729	    0.022564	    0.083293	    0.025455	    0.011318	    0.036772	    0.034177	    0.016855	    0.051031	    0.025055	    0.009018	    0.034073	    0.032764	    0.025917	    0.058681	    0.006636	    0.005231	    0.011867	   -0.007181	    0.026680	    0.019499	    0.031407	   -0.013939	    0.017468	    0.050750	    0.023337	    0.074087	    0.021834	    0.008433	    0.030267	    0.032747	    0.005868	    0.038615	    0.030930	    0.015105	    0.046035	    0.024611	    0.027885	    0.052495	   -0.003256	    0.009456	    0.006200
     6.300	0	0	    0	    0.029589	   -0.011618	    0.017971	    0.024021	    0.003936	    0.027957	    0.033347	    0.006820	    0.040167	    0.036842	    0.011611	    0.048453	    0.043801	    0.023674	    0.067475	    0.011925	    0.002891	    0.014816	    0.009130	    0.003177	    0.012308	    0.006936	   -0.024967	   -0.018031	    0.061747	    0.023808	    0.085556	    0.024465	    0.012537	    0.037002	    0.035459	    0.016583	    0.052043	    0.027197	    0.009123	    0.036321	    0.035259	    0.025119	    0.060379	    0.004335	    0.004907	    0.009242	   -0.005903	    0.022827	    0.016924	    0.030127	   -0.011508	    0.018619	    0.051308	    0.024798	    0.076105	    0.021807	    0.008809	    0.030616	    0.033124	    0.006174	    0.039298	    0.032990	    0.014946	    0.047935	    0.024302	    0.028542	    0.052844	   -0.001424	    0.006222	    0.004798
     6.375	0	0	    0	    0.019073	    0.009918	    0.028992	    0.020071	    0.009950	    0.030021	    0.025014	    0.014563	    0.039577	    0.033241	    0.014638	    0.047879	    0.042816	    0.028223	    0.071038	    0.009444	    0.009719	    0.019163	   -0.002125	    0.019992	    0.017868	    0.004454	   -0.022964	   -0.018510	    0.061425	    0.021686	    0.083110	    0.023928	    0.012166	    0.036094	    0.035877	    0.016404	    0.052282	    0.027435	    0.009221	    0.036656	    0.038188	    0.022188	    0.060377	    0.001158	    0.007555	    0.008713	   -0.001275	    0.022538	    0.021263	    0.029973	   -0.014487	    0.015486	    0.050541	    0.023129	    0.073670	    0.022555	    0.008176	    0.030731	    0.033611	    0.005893	    0.039504	    0.032318	    0.014833	    0.047151	    0.025795	    0.026022	    0.051818	    0.007714	   -0.001371	    0.006343
     6.450	0	0	    0	    0.023950	    0.004743	    0.028692	    0.022030	    0.007132	    0.029162	    0.028268	    0.010178	    0.038445	    0.036121	    0.012674	    0.048795	    0.044148	    0.028543	    0.072691	    0.012897	    0.007599	    0.020496	    0.019156	    0.004854	    0.024010	    0.004344	   -0.020317	   -0.015974	    0.060367	    0.023416	    0.083782	    0.024709	    0.011941	    0.036651	    0.036272	    0.016755	    0.053027	    0.027477	    0.009255	    0.036732	    0.035679	    0.025402	    0.061081	    0.008442	    0.004329	    0.012771	   -0.000221	    0.025880	    0.025660	    0.030205	   -0.014325	    0.015881	    0.050518	    0.023777	    0.074294	    0.022499	    0.008710	    0.031209	    0.034001	    0.005879	    0.039881	    0.031985	    0.015276	    0.047261	    0.025769	    0.028055	    0.053824	   -0.000710	    0.010236	    0.009525
     6.525	0	0	    0	    0.024440	    0.001054	    0.025494	    0.020905	    0.008163	    0.029068	    0.024248	    0.012884	    0.037132	    0.033031	    0.015590	    0.048621	    0.041029	    0.027519	    0.068548	    0.005212	    0.009004	    0.014216	   -0.011155	    0.028065	    0.016909	    0.002514	   -0.019370	   -0.016855	    0.055691	    0.026821	    0.082512	    0.022229	    0.012706	    0.034935	    0.035789	    0.017140	    0.052929	    0.027186	    0.009518	    0.036705	    0.029993	    0.029934	    0.059926	    0.003385	    0.004753	    0.008138	   -0.001343	    0.020885	    0.019542	    0.025076	   -0.011649	    0.013427	    0.048101	    0.024131	    0.072232	    0.021872	    0.008414	    0.030286	    0.033249	    0.005803	    0.039053	    0.030803	    0.015543	    0.046346	    0.022261	    0.029807	    0.052068	    0.003177	    0.000465	    0.003643
     6.600	0	0	    0	    0.035337	   -0.018822	    0.016514	    0.020608	    0.005562	    0.026170	    0.029843	    0.002973	    0.032816	    0.035807	    0.011818	    0.047625	    0.046934	    0.023833	    0.070767	    0.015872	    0.001675	    0.017546	    0.013827	    0.005196	    0.019023	    0.007589	   -0.024424	   -0.016835	    0.056698	    0.021821	    0.078519	    0.023274	    0.010887	    0.034161	    0.035587	    0.016810	    0.052397	    0.027054	    0.009310	    0.036363	    0.034055	    0.025264	    0.059318	    0.007410	    0.003986	    0.011395	    0.001460	    0.018889	    0.020349	    0.023022	   -0.012468	    0.010555	    0.046391	    0.023229	    0.069620	    0.021327	    0.008452	    0.029779	    0.032940	    0.005530	    0.038470	    0.030860	    0.014022	    0.044882	    0.023401	    0.027668	    0.051069	   -0.000166	    0.007144	    0.006978
     6.675	0	0	    0	    0.018863	   -0.002025	    0.016838	    0.017880	    0.008593	    0.026473	    0.023691	    0.010316	    0.034007	    0.032473	    0.013974	    0.046447	    0.037816	    0.031282	    0.069098	    0.012372	    0.001712	    0.014084	   -0.003060	    0.021070	    0.018010	    0.002226	   -0.020603	   -0.018376	    0.054608	    0.020887	    0.075495	    0.020875	    0.012326	    0.033201	    0.034270	    0.017383	    0.051653	    0.025764	    0.009602	    0.035365	    0.032369	    0.025718	    0.058087	   -0.003873	    0.011878	    0.008005	   -0.005998	    0.022474	    0.016476	    0.020591	   -0.013513	    0.007078	    0.044243	    0.022445	    0.066688	    0.020318	    0.008337	    0.028655	    0.031558	    0.005720	    0.037278	    0.029188	    0.014386	    0.043574	    0.023798	    0.025416	    0.049213	   -0.002983	    0.005072	    0.002089
     6.750	0	0	    0	    0.031848	   -0.018517	    0.013330	    0.021607	    0.002296	    0.023902	    0.030618	    0.001046	    0.031664	    0.033925	    0.010587	    0.044513	    0.042220	    0.024843	    0.067062	    0.015900	   -0.002152	    0.013748	    0.006629	    0.003807	    0.010437	   -0.000584	   -0.020446	   -0.021029	    0.051836	    0.020029	    0.071866	    0.019834	    0.011330	    0.031164	    0.034242	    0.016615	    0.050857	    0.024886	    0.008934	    0.033820	    0.031876	    0.024896	    0.056772	    0.000774	    0.005705	    0.006479	    0.005366	    0.009315	    0.014680	    0.018948	   -0.015917	    0.003032	    0.041854	    0.021916	    0.063770	    0.019674	    0.007997	    0.027671	    0.030372	    0.005290	    0.035662	    0.028167	    0.012789	    0.040956	    0.020776	    0.027628	    0.048404	    0.001630	    0.001443	    0.003073
     6.825	0	0	    0	    0.022920	   -0.005192	    0.017728	    0.017949	    0.005934	    0.023883	    0.024271	    0.008290	    0.032561	    0.034132	    0.009646	    0.043778	    0.040861	    0.025371	    0.066232	    0.010465	    0.004069	    0.014534	    0.000142	    0.014894	    0.015036	    0.003546	   -0.026118	   -0.022572	    0.047747	    0.022352	    0.070099	    0.018934	    0.011351	    0.030285	    0.034235	    0.015944	    0.050178	    0.023881	    0.009036	    0.032917	    0.027742	    0.027262	    0.055004	    0.002370	    0.004406	    0.006776	    0.008915	    0.007721	    0.016637	    0.015131	   -0.014831	    0.000300	    0.039910	    0.021088	    0.060998	    0.019075	    0.007540	    0.026615	    0.029580	    0.005163	    0.034742	    0.026281	    0.013218	    0.039499	    0.019780	    0.027624	    0.047403	    0.004535	   -0.001485	    0.003049
     6.900	0	0	    0	    0.012019	    0.008587	    0.020606	    0.017945	    0.004995	    0.022940	    0.022980	    0.007291	    0.030271	    0.031491	    0.012278	    0.043769	    0.034248	    0.030418	    0.064666	    0.004735	    0.004713	    0.009448	    0.007410	    0.005775	    0.013185	    0.002097	   -0.024287	   -0.022190	    0.048280	    0.019126	    0.067406	    0.017340	    0.011601	    0.028941	    0.033519	    0.016466	    0.049985	    0.022467	    0.009138	    0.031605	    0.029744	    0.023570	    0.053314	   -0.000049	    0.004794	    0.004746	    0.000705	    0.018697	    0.019402	    0.014151	   -0.016012	   -0.001861	    0.038132	    0.020880	    0.059012	    0.017990	    0.007508	    0.025498	    0.028576	    0.004939	    0.033515	    0.025281	    0.012594	    0.037875	    0.019985	    0.026120	    0.046106	   -0.002121	    0.004372	    0.002251
     6.975	0	0	    0	    0.028591	   -0.010338	    0.018252	    0.016027	    0.004135	    0.020161	    0.022167	    0.007996	    0.030162	    0.030541	    0.012926	    0.043467	    0.037201	    0.024317	    0.061518	    0.004316	   -0.000604	    0.003712	   -0.006982	    0.020764	    0.013782	    0.000738	   -0.025941	   -0.025203	    0.044871	    0.018324	    0.063195	    0.015920	    0.011463	    0.027383	    0.031733	    0.017083	    0.048816	    0.021996	    0.008784	    0.030780	    0.027671	    0.022921	    0.050592	   -0.003183	    0.002406	   -0.000777	    0.004799	    0.013355	    0.018154	    0.010240	   -0.016889	   -0.006649	    0.035046	    0.020556	    0.055603	    0.016827	    0.007204	    0.024031	    0.027414	    0.004857	    0.032271	    0.023939	    0.012085	    0.036024	    0.017566	    0.025414	    0.042979	    0.003032	   -0.005412	   -0.002380
     7.050	0	0	    0	    0.019860	   -0.007382	    0.012478	    0.019302	    0.003510	    0.022812	    0.026890	    0.002444	    0.029334	    0.028107	    0.012292	    0.040399	    0.033148	    0.027806	    0.060954	    0.006067	    0.003102	    0.009169	   -0.002617	    0.014154	    0.011537	   -0.000480	   -0.025745	   -0.026225	    0.051233	    0.013968	    0.065201	    0.020289	    0.009669	    0.029959	    0.035795	    0.015485	    0.051280	    0.021077	    0.008031	    0.029108	    0.028832	    0.020549	    0.049380	    0.006974	   -0.000742	    0.006232	    0.007442	    0.008312	    0.015754	    0.019325	   -0.021504	   -0.002180	    0.040518	    0.017723	    0.058241	    0.021286	    0.006591	    0.027877	    0.031305	    0.004014	    0.035318	    0.025716	    0.010787	    0.036503	    0.023430	    0.023286	    0.046716	    0.003923	   -0.000184	    0.003739
     7.125	0	0	    0	    0.011535	   -0.002809	    0.008725	    0.024957	    0.004628	    0.029585	    0.032504	    0.009189	    0.041693	    0.035821	    0.012493	    0.048314	    0.041035	    0.023100	    0.064135	    0.014316	   -0.004444	    0.009872	    0.013163	   -0.000024	    0.013139	   -0.001053	   -0.018269	   -0.019322	    0.064533	    0.019515	    0.084047	    0.025642	    0.011659	    0.037301	    0.037917	    0.017156	    0.055073	    0.026780	    0.008227	    0.035006	    0.033363	    0.023821	    0.057184	    0.008997	   -0.001208	    0.007789	   -0.002283	    0.020691	    0.018408	    0.031855	   -0.013453	    0.018402	    0.051915	    0.022714	    0.074629	    0.023634	    0.008075	    0.031709	    0.035262	    0.005239	    0.040501	    0.032705	    0.014257	    0.046962	    0.025976	    0.026963	    0.052940	   -0.000307	    0.006487	    0.006180
     7.200	0	0	    0	    0.031527	   -0.013050	    0.018476	    0.031233	    0.000323	    0.031556	    0.040901	    0.001041	    0.041943	    0.039996	    0.010717	    0.050713	    0.045952	    0.024219	    0.070171	    0.018336	   -0.003000	    0.015336	    0.026115	   -0.011327	    0.014787	    0.006372	   -0.025846	   -0.019474	    0.067987	    0.020781	    0.088768	    0.028553	    0.010636	    0.039188	    0.039983	    0.017176	    0.057159	    0.029549	    0.008386	    0.037935	    0.037210	    0.023863	    0.061074	    0.009934	    0.000842	    0.010775	   -0.003779	    0.020307	    0.016528	    0.034218	   -0.013313	    0.020904	    0.054560	    0.023669	    0.078229	    0.025429	    0.007895	    0.033324	    0.037126	    0.005478	    0.042604	    0.036304	    0.012983	    0.049287	    0.028363	    0.026688	    0.055051	    0.001000	    0.006318	    0.007318
     7.275	0	0	    0	    0.043636	   -0.021185	    0.022451	    0.026640	    0.005686	    0.032326	    0.033492	    0.011609	    0.045100	    0.039770	    0.014237	    0.054007	    0.048574	    0.026261	    0.074835	    0.014199	    0.005463	    0.019662	   -0.001178	    0.018907	    0.017730	    0.006692	   -0.024657	   -0.017966	    0.068256	    0.022670	    0.090926	    0.026951	    0.012937	    0.039889	    0.040286	    0.017760	    0.058046	    0.031044	    0.009158	    0.040202	    0.038984	    0.025216	    0.064200	    0.004813	    0.004005	    0.008818	   -0.002533	    0.026111	    0.023579	    0.034637	   -0.011541	    0.023096	    0.055390	    0.024883	    0.080273	    0.025794	    0.008216	    0.034010	    0.037311	    0.006054	    0.043365	    0.036228	    0.014705	    0.050934	    0.028331	    0.027106	    0.055437	   -0.003614	    0.010316	    0.006702
     7.350	0	0	    0	    0.036139	   -0.011697	    0.024442	    0.027013	    0.006326	    0.033340	    0.037659	    0.007062	    0.044721	    0.042198	    0.011437	    0.053635	    0.050925	    0.022836	    0.073761	    0.019119	    0.003121	    0.022241	    0.008167	    0.015161	    0.023328	    0.006953	   -0.024303	   -0.017350	    0.064861	    0.024118	    0.088979	    0.026468	    0.012289	    0.038757	    0.041015	    0.017198	    0.058213	    0.031224	    0.009269	    0.040493	    0.035217	    0.028517	    0.063734	    0.012223	   -0.001755	    0.010468	    0.004743	    0.019817	    0.024560	    0.031820	   -0.012175	    0.019644	    0.054320	    0.022972	    0.077292	    0.025619	    0.008061	    0.033679	    0.037740	    0.005481	    0.043220	    0.035606	    0.014199	    0.049806	    0.028051	    0.026807	    0.054858	    0.011354	   -0.001779	    0.009575
     7.425	0	0	    0	    0.022600	    0.001332	    0.023932	    0.027231	    0.005323	    0.032554	    0.032830	    0.012097	    0.044926	    0.041276	    0.014458	    0.055733	    0.048341	    0.024116	    0.072457	    0.019631	   -0.002901	    0.016731	    0.005498	    0.011562	    0.017060	    0.005445	   -0.022397	   -0.016952	    0.065621	    0.022855	    0.088476	    0.027095	    0.012296	    0.039391	    0.041189	    0.017636	    0.058825	    0.031161	    0.009152	    0.040313	    0.038951	    0.023256	    0.062206	    0.008370	    0.003155	    0.011525	    0.002919	    0.017314	    0.020232	    0.031649	   -0.012291	    0.019358	    0.053953	    0.023811	    0.077764	    0.026050	    0.008006	    0.034055	    0.037584	    0.005751	    0.043336	    0.036575	    0.012823	    0.049398	    0.028997	    0.026065	    0.055061	    0.004879	    0.003688	    0.008568
     7.500	0	0	    0	    0.019161	    0.005664	    0.024825	    0.029824	    0.000636	    0.030460	    0.036821	    0.005143	    0.041964	    0.042017	    0.012104	    0.054122	    0.048382	    0.027738	    0.076120	    0.024188	   -0.002009	    0.022179	    0.024450	   -0.002636	    0.021814	    0.005470	   -0.021516	   -0.016046	    0.065479	    0.021770	    0.087249	    0.026385	    0.012115	    0.038499	    0.041026	    0.017030	    0.058056	    0.031246	    0.009300	    0.040546	    0.038167	    0.025564	    0.063731	    0.008990	    0.003619	    0.012609	    0.003084	    0.018612	    0.021696	    0.029476	   -0.011872	    0.017605	    0.053109	    0.023061	    0.076170	    0.025367	    0.008044	    0.033411	    0.037505	    0.005635	    0.043140	    0.035617	    0.013024	    0.048641	    0.027672	    0.027266	    0.054938	    0.004960	    0.001515	    0.006475
     7.575	0	0	    0	    0.036054	   -0.008487	    0.027566	    0.027906	    0.003524	    0.031430	    0.037998	    0.003312	    0.041311	    0.039447	    0.014347	    0.053794	    0.049815	    0.024661	    0.074476	    0.021421	   -0.002515	    0.018907	    0.028819	   -0.008424	    0.020395	    0.007465	   -0.024718	   -0.017253	    0.065447	    0.019947	    0.085395	    0.025471	    0.011722	    0.037193	    0.039949	    0.017878	    0.057827	    0.031437	    0.009307	    0.040744	    0.038561	    0.023883	    0.062444	    0.011490	   -0.001462	    0.010029	    0.004570	    0.018016	    0.022586	    0.029079	   -0.014401	    0.014677	    0.051471	    0.022095	    0.073566	    0.024358	    0.008018	    0.032376	    0.036194	    0.005889	    0.042084	    0.035242	    0.012170	    0.047411	    0.028993	    0.024001	    0.052995	    0.002252	    0.005460	    0.007712
     7.650	0	0	    0	    0.019538	   -0.000928	    0.018610	    0.022890	    0.005172	    0.028062	    0.028872	    0.010099	    0.038971	    0.038350	    0.014473	    0.052824	    0.038963	    0.031391	    0.070354	    0.004879	    0.008411	    0.013289	   -0.003258	    0.016481	    0.013223	    0.002933	   -0.023084	   -0.020151	    0.056444	    0.025124	    0.081568	    0.024273	    0.011614	    0.035887	    0.039179	    0.017889	    0.057068	    0.030259	    0.009575	    0.039835	    0.032665	    0.027798	    0.060462	    0.000305	    0.009592	    0.009897	   -0.006564	    0.024270	    0.017706	    0.023416	   -0.012924	    0.010492	    0.048474	    0.022607	    0.071081	    0.023634	    0.007710	    0.031344	    0.035525	    0.005497	    0.041023	    0.032124	    0.013925	    0.046049	    0.025117	    0.027558	    0.052675	   -0.000502	    0.006565	    0.006063
     7.725	0	0	    0	    0.024628	    0.002851	    0.027478	    0.025277	    0.002696	    0.027973	    0.030563	    0.005657	    0.036220	    0.038336	    0.012816	    0.051152	    0.046206	    0.027184	    0.073389	    0.016347	   -0.001108	    0.015239	    0.006236	    0.013376	    0.019611	    0.001618	   -0.023004	   -0.021386	    0.060766	    0.019091	    0.079856	    0.023756	    0.011443	    0.035199	    0.039060	    0.018001	    0.057061	    0.030088	    0.008747	    0.038835	    0.036726	    0.023130	    0.059856	    0.010675	    0.001519	    0.012194	   -0.001493	    0.020566	    0.019073	    0.024243	   -0.016977	    0.007266	    0.047399	    0.021240	    0.068640	    0.023587	    0.007034	    0.030621	    0.034828	    0.005422	    0.040249	    0.032114	    0.011805	    0.043919	    0.026808	    0.026019	    0.052828	    0.004481	    0.007073	    0.011554
     7.800	0	0	    0	    0.019246	    0.001464	    0.020710	    0.021028	    0.004693	    0.025721	    0.032804	    0.004859	    0.037663	    0.037383	    0.013171	    0.050555	    0.038841	    0.031161	    0.070002	    0.014738	   -0.001192	    0.013546	    0.013699	    0.001346	    0.015045	   -0.001984	   -0.020702	   -0.022686	    0.054122	    0.023678	    0.077799	    0.024489	    0.012318	    0.036806	    0.040992	    0.016998	    0.057990	    0.029170	    0.009166	    0.038336	    0.034093	    0.027314	    0.061407	    0.006150	    0.009102	    0.015251	    0.003224	    0.012821	    0.016045	    0.018006	   -0.013281	    0.004725	    0.045633	    0.022078	    0.067711	    0.023780	    0.006793	    0.030573	    0.034391	    0.005195	    0.039586	    0.030168	    0.012718	    0.042887	    0.025233	    0.027493	    0.052726	    0.009519	    0.003959	    0.013478
     7.875	0	0	    0	    0.028591	   -0.010338	    0.018252	    0.015204	    0.008430	    0.023633	    0.020247	    0.015578	    0.035825	    0.037728	    0.011477	    0.049205	    0.044243	    0.025162	    0.069405	   -0.003324	    0.013716	    0.010392	   -0.020720	    0.039008	    0.018288	   -0.001883	   -0.023299	   -0.025182	    0.056230	    0.019656	    0.075886	    0.025477	    0.015107	    0.040584	    0.040068	    0.017596	    0.057665	    0.029575	    0.009611	    0.039186	    0.035867	    0.027084	    0.062952	    0.005862	    0.007462	    0.013324	    0.002593	    0.014732	    0.017325	    0.017424	   -0.018514	   -0.001089	    0.046209	    0.020112	    0.066320	    0.023753	    0.007348	    0.031101	    0.033906	    0.005420	    0.039326	    0.029764	    0.012340	    0.042104	    0.023756	    0.027287	    0.051043	    0.005689	    0.005149	    0.010838
     7.950	0	0	    0	    0.030900	   -0.011236	    0.019664	    0.018563	    0.002223	    0.020786	    0.021656	    0.014795	    0.036451	    0.039284	    0.009230	    0.048514	    0.047179	    0.022635	    0.069814	    0.002867	    0.005462	    0.008329	   -0.007189	    0.019909	    0.012720	   -0.000540	   -0.027231	   -0.027771	    0.056424	    0.019078	    0.075502	    0.026626	    0.017224	    0.043850	    0.039700	    0.017366	    0.057065	    0.029807	    0.009148	    0.038955	    0.038462	    0.027566	    0.066028	    0.004580	    0.007483	    0.012063	    0.003067	    0.012033	    0.015100	    0.010442	   -0.021531	   -0.011089	    0.045393	    0.020202	    0.065596	    0.024337	    0.006613	    0.030950	    0.033321	    0.004462	    0.037783	    0.030034	    0.012551	    0.042585	    0.024568	    0.025123	    0.049691	    0.001071	    0.009522	    0.010593
     8.025	0	0	    0	    0.030968	   -0.013266	    0.017702	    0.019211	   -0.000912	    0.018299	    0.027682	    0.004056	    0.031738	    0.035473	    0.011237	    0.046710	    0.045263	    0.024212	    0.069475	    0.017961	   -0.011694	    0.006267	    0.013163	   -0.000024	    0.013139	   -0.002252	   -0.033471	   -0.035723	    0.051087	    0.021337	    0.072424	    0.025594	    0.017293	    0.042887	    0.038445	    0.017119	    0.055564	    0.028868	    0.009827	    0.038695	    0.038488	    0.026591	    0.065078	    0.006017	    0.003789	    0.009806	    0.002433	    0.013448	    0.015881	    0.003334	   -0.028044	   -0.024710	    0.042898	    0.020887	    0.063785	    0.023261	    0.007432	    0.030694	    0.031965	    0.004733	    0.036698	    0.027521	    0.013386	    0.040907	    0.019043	    0.029646	    0.048689	    0.004033	    0.004743	    0.008776
     8.100	0	0	    0	    0.028820	   -0.010642	    0.018178	    0.016838	    0.003282	    0.020119	    0.025917	    0.008825	    0.034742	    0.036204	    0.008940	    0.045144	    0.045458	    0.025245	    0.070703	    0.010832	   -0.002814	    0.008019	    0.005453	    0.011370	    0.016823	   -0.002741	   -0.037231	   -0.039973	    0.049019	    0.020805	    0.069824	    0.026102	    0.016584	    0.042686	    0.039321	    0.016906	    0.056227	    0.027597	    0.010101	    0.037698	    0.032814	    0.031619	    0.064434	    0.005975	    0.005718	    0.011693	    0.001612	    0.020197	    0.021809	    0.002636	   -0.033161	   -0.030525	    0.041768	    0.020171	    0.061939	    0.026532	    0.006643	    0.033175	    0.034125	    0.004064	    0.038190	    0.025438	    0.014917	    0.040355	    0.019773	    0.029774	    0.049547	    0.006315	    0.003824	    0.010139
     8.175	0	0	    0	    0.027811	   -0.003226	    0.024585	    0.023406	    0.003571	    0.026977	    0.032752	    0.010524	    0.043275	    0.038843	    0.009785	    0.048628	    0.048111	    0.026441	    0.074552	    0.014171	    0.001125	    0.015296	   -0.003060	    0.021070	    0.018010	   -0.000357	   -0.033672	   -0.034029	    0.073794	    0.016995	    0.090789	    0.035557	    0.016953	    0.052510	    0.043777	    0.016782	    0.060559	    0.032617	    0.009491	    0.042108	    0.044374	    0.026864	    0.071238	    0.010228	    0.008329	    0.018557	    0.003136	    0.020082	    0.023217	    0.023756	   -0.029441	   -0.005684	    0.061603	    0.021667	    0.083270	    0.032150	    0.008036	    0.040187	    0.039866	    0.004977	    0.044843	    0.034532	    0.016852	    0.051385	    0.028241	    0.031793	    0.060035	   -0.000239	    0.013667	    0.013428
     8.250	0	0	    0	    0.012537	    0.010968	    0.023505	    0.028378	    0.002048	    0.030426	    0.041756	    0.002653	    0.044409	    0.037843	    0.013291	    0.051134	    0.050318	    0.029520	    0.079838	    0.024272	   -0.003776	    0.020496	    0.015539	    0.006119	    0.021658	   -0.002131	   -0.033189	   -0.035320	    0.073566	    0.027212	    0.100777	    0.037220	    0.018316	    0.055536	    0.044482	    0.017459	    0.061941	    0.036368	    0.010658	    0.047026	    0.044655	    0.033445	    0.078100	    0.014709	    0.005400	    0.020108	   -0.000460	    0.022900	    0.022440	    0.024493	   -0.023714	    0.000779	    0.064954	    0.027484	    0.092438	    0.033983	    0.008567	    0.042550	    0.042256	    0.005804	    0.048060	    0.038183	    0.019520	    0.057703	    0.030197	    0.033116	    0.063313	    0.003353	    0.008606	    0.011959
     8.325	0	0	    0	    0.011565	    0.016286	    0.027850	    0.029228	    0.003026	    0.032254	    0.037369	    0.011441	    0.048810	    0.042679	    0.011256	    0.053935	    0.053502	    0.027146	    0.080648	    0.020861	    0.002053	    0.022914	    0.019013	    0.007968	    0.026981	   -0.000970	   -0.032014	   -0.032984	    0.076222	    0.028278	    0.104500	    0.039073	    0.018402	    0.057475	    0.046124	    0.017102	    0.063226	    0.037868	    0.011510	    0.049378	    0.045075	    0.035391	    0.080465	    0.011950	    0.009180	    0.021130	    0.013319	    0.010648	    0.023967	    0.027260	   -0.024175	    0.003085	    0.067550	    0.028891	    0.096441	    0.034631	    0.009220	    0.043852	    0.043805	    0.006052	    0.049856	    0.040497	    0.020033	    0.060531	    0.031445	    0.033728	    0.065173	    0.005735	    0.007285	    0.013020
     8.400	0	0	    0	    0.039852	   -0.012243	    0.027608	    0.027124	    0.004909	    0.032033	    0.033492	    0.011609	    0.045100	    0.043996	    0.009869	    0.053865	    0.057141	    0.025446	    0.082586	    0.019296	    0.004062	    0.023357	    0.000474	    0.027964	    0.028438	    0.003205	   -0.036852	   -0.033647	    0.074230	    0.028903	    0.103133	    0.037313	    0.018192	    0.055506	    0.045254	    0.017583	    0.062836	    0.038792	    0.011373	    0.050165	    0.046099	    0.034177	    0.080276	    0.011605	    0.010501	    0.022105	    0.000211	    0.021942	    0.022153	    0.024195	   -0.025663	   -0.001468	    0.065126	    0.028799	    0.093925	    0.034331	    0.008867	    0.043198	    0.043654	    0.005967	    0.049622	    0.040364	    0.019060	    0.059424	    0.031049	    0.033923	    0.064972	    0.007356	    0.005554	    0.012910
     8.475	0	0	    0	    0.037837	   -0.003438	    0.034399	    0.031212	    0.001144	    0.032355	    0.038820	    0.006311	    0.045131	    0.043788	    0.011130	    0.054918	    0.059634	    0.024458	    0.084092	    0.024660	   -0.002571	    0.022089	    0.006635	    0.018572	    0.025208	    0.004070	   -0.035510	   -0.031440	    0.075779	    0.027611	    0.103390	    0.038623	    0.017891	    0.056514	    0.046072	    0.017658	    0.063730	    0.038838	    0.011273	    0.050111	    0.049566	    0.030792	    0.080358	    0.016007	    0.005190	    0.021196	    0.004487	    0.017366	    0.021853	    0.026068	   -0.027800	   -0.001732	    0.066864	    0.027893	    0.094757	    0.035038	    0.008552	    0.043590	    0.044301	    0.006128	    0.050430	    0.040757	    0.018869	    0.059626	    0.031330	    0.033678	    0.065009	    0.006009	    0.010441	    0.016449
     8.550	0	0	    0	    0.017363	    0.011008	    0.028371	    0.030686	    0.002315	    0.033001	    0.040580	    0.004777	    0.045357	    0.042483	    0.012222	    0.054706	    0.049609	    0.032069	    0.081679	    0.020409	    0.000991	    0.021401	    0.017267	    0.007043	    0.024311	    0.000597	   -0.033776	   -0.033178	    0.074420	    0.027040	    0.101460	    0.037318	    0.017329	    0.054647	    0.046125	    0.017272	    0.063397	    0.038334	    0.011429	    0.049763	    0.046832	    0.031550	    0.078382	    0.010783	    0.007609	    0.018392	    0.006529	    0.013695	    0.020224	    0.023121	   -0.026918	   -0.003798	    0.064892	    0.027811	    0.092703	    0.034089	    0.008384	    0.042473	    0.043835	    0.006155	    0.049990	    0.039625	    0.019457	    0.059082	    0.031992	    0.030647	    0.062639	    0.002692	    0.004210	    0.006902
     8.625	0	0	    0	    0.033029	   -0.011860	    0.021170	    0.027365	    0.003286	    0.030651	    0.033682	    0.009707	    0.043389	    0.043531	    0.011033	    0.054564	    0.057552	    0.024991	    0.082543	    0.018672	    0.002058	    0.020730	    0.010206	    0.021189	    0.031395	   -0.000228	   -0.032952	   -0.033180	    0.073092	    0.025886	    0.098978	    0.035462	    0.017847	    0.053309	    0.045704	    0.017119	    0.062823	    0.038314	    0.011048	    0.049362	    0.046495	    0.031584	    0.078079	    0.012126	    0.006619	    0.018745	    0.006327	    0.019871	    0.026197	    0.022144	   -0.028573	   -0.006429	    0.063456	    0.026838	    0.090294	    0.033090	    0.007815	    0.040904	    0.043362	    0.005732	    0.049094	    0.039245	    0.018580	    0.057824	    0.030236	    0.033080	    0.063316	    0.001346	    0.009052	    0.010397
     8.700	0	0	    0	    0.011700	    0.008986	    0.020685	    0.025552	    0.004059	    0.029611	    0.034204	    0.010714	    0.044917	    0.041789	    0.011406	    0.053195	    0.052255	    0.028762	    0.081017	    0.016676	    0.002356	    0.019032	    0.019226	    0.001609	    0.020835	   -0.002145	   -0.031410	   -0.033555	    0.071623	    0.023637	    0.095261	    0.034144	    0.017380	    0.051524	    0.044856	    0.017261	    0.062117	    0.037016	    0.010985	    0.048002	    0.046292	    0.028781	    0.075072	    0.010344	    0.007559	    0.017903	    0.005967	    0.016275	    0.022242	    0.020762	   -0.030575	   -0.009813	    0.060686	    0.026624	    0.087309	    0.031741	    0.007694	    0.039435	    0.042180	    0.005652	    0.047832	    0.037995	    0.017532	    0.055526	    0.027539	    0.033593	    0.061132	    0.008198	    0.002701	    0.010899
     8.775	0	0	    0	    0.026521	   -0.005686	    0.020834	    0.022955	    0.005066	    0.028022	    0.029532	    0.014528	    0.044060	    0.042991	    0.010159	    0.053150	    0.053657	    0.028217	    0.081874	    0.012767	    0.005025	    0.017792	    0.002251	    0.013569	    0.015821	   -0.001852	   -0.032442	   -0.034294	    0.068486	    0.023919	    0.092405	    0.032301	    0.016867	    0.049168	    0.044883	    0.016278	    0.061161	    0.035990	    0.010807	    0.046797	    0.042466	    0.031693	    0.074159	    0.006864	    0.007648	    0.014512	    0.005796	    0.014984	    0.020780	    0.016540	   -0.029700	   -0.013161	    0.057949	    0.025477	    0.083426	    0.030439	    0.007259	    0.037699	    0.040560	    0.005656	    0.046216	    0.035190	    0.018420	    0.053610	    0.027799	    0.030571	    0.058369	    0.006554	   -0.000187	    0.006367
     8.850	0	0	    0	    0.035350	   -0.012762	    0.022588	    0.025603	    0.001007	    0.026610	    0.030136	    0.009812	    0.039949	    0.042264	    0.008976	    0.051241	    0.055309	    0.022781	    0.078089	    0.014190	   -0.001103	    0.013088	    0.003282	    0.009026	    0.012308	    0.000753	   -0.035957	   -0.035204	    0.063119	    0.025396	    0.088516	    0.030689	    0.015715	    0.046404	    0.041755	    0.016924	    0.058679	    0.034672	    0.010174	    0.044846	    0.039676	    0.031261	    0.070937	    0.008402	    0.005283	    0.013685	   -0.002304	    0.020208	    0.017904	    0.012915	   -0.029790	   -0.016875	    0.054410	    0.025074	    0.079484	    0.029699	    0.006675	    0.036374	    0.039557	    0.005108	    0.044665	    0.033441	    0.017889	    0.051329	    0.024259	    0.031794	    0.056053	    0.000614	    0.005049	    0.005663
     8.925	0	0	    0	    0.020000	   -0.010558	    0.009443	    0.021394	    0.002381	    0.023775	    0.028896	    0.007740	    0.036636	    0.039649	    0.009189	    0.048838	    0.050304	    0.025307	    0.075611	    0.013303	   -0.001605	    0.011698	   -0.006982	    0.020764	    0.013782	   -0.001864	   -0.036814	   -0.038678	    0.059840	    0.024728	    0.084567	    0.028729	    0.015091	    0.043820	    0.040977	    0.015503	    0.056480	    0.032687	    0.009503	    0.042190	    0.038291	    0.029235	    0.067526	    0.003559	    0.007131	    0.010690	    0.000492	    0.017234	    0.017726	    0.009420	   -0.029603	   -0.020183	    0.052104	    0.024145	    0.076249	    0.028639	    0.006407	    0.035046	    0.038003	    0.004960	    0.042964	    0.031103	    0.018073	    0.049176	    0.022437	    0.031573	    0.054010	   -0.001993	    0.006806	    0.004813
     9.000	0	0	    0	    0.027419	   -0.007846	    0.019572	    0.020474	    0.003729	    0.024203	    0.029878	    0.007508	    0.037387	    0.041393	    0.007262	    0.048655	    0.051757	    0.023063	    0.074820	    0.017719	   -0.006535	    0.011184	    0.003896	    0.014534	    0.018430	   -0.001119	   -0.035347	   -0.036467	    0.060178	    0.021164	    0.081342	    0.027898	    0.013904	    0.041802	    0.040121	    0.015354	    0.055475	    0.031603	    0.009151	    0.040754	    0.037934	    0.026449	    0.064383	    0.005245	    0.005031	    0.010276	    0.001844	    0.014540	    0.016384	    0.007904	   -0.030834	   -0.022930	    0.049614	    0.023085	    0.072700	    0.027157	    0.005821	    0.032978	    0.036691	    0.004487	    0.041179	    0.030494	    0.016051	    0.046545	    0.022270	    0.030505	    0.052775	   -0.002342	    0.005879	    0.003537
     9.075	0	0	    0	    0.032496	   -0.013225	    0.019271	    0.016722	    0.006753	    0.023475	    0.021486	    0.014041	    0.035527	    0.039153	    0.008698	    0.047851	    0.051331	    0.025739	    0.077070	    0.008043	    0.005544	    0.013587	   -0.007200	    0.024376	    0.017176	    0.000301	   -0.038239	   -0.037938	    0.056608	    0.021305	    0.077913	    0.025691	    0.015024	    0.040715	    0.039374	    0.015684	    0.055058	    0.030320	    0.009028	    0.039348	    0.034621	    0.029898	    0.064519	    0.004335	    0.004907	    0.009242	   -0.001539	    0.020392	    0.018853	    0.005156	   -0.031212	   -0.026056	    0.047683	    0.022101	    0.069784	    0.025675	    0.004989	    0.030664	    0.034934	    0.004412	    0.039346	    0.027522	    0.016853	    0.044375	    0.020040	    0.030465	    0.050505	    0.000390	    0.001244	    0.001634
     9.150	0	0	    0	    0.024747	   -0.005460	    0.019287	    0.021549	   -0.000926	    0.020622	    0.029598	    0.004258	    0.033855	    0.040931	    0.005892	    0.046824	    0.050180	    0.021737	    0.071917	    0.011746	   -0.006082	    0.005664	    0.000069	    0.011008	    0.011077	   -0.001712	   -0.038968	   -0.040681	    0.051388	    0.022671	    0.074059	    0.025348	    0.014023	    0.039371	    0.038080	    0.016267	    0.054347	    0.028968	    0.008944	    0.037912	    0.033098	    0.027856	    0.060953	    0.001896	    0.005303	    0.007199	   -0.011472	    0.030770	    0.019298	    0.001632	   -0.032248	   -0.030616	    0.044530	    0.021785	    0.066314	    0.023362	    0.004992	    0.028354	    0.033232	    0.004186	    0.037418	    0.025545	    0.016128	    0.041674	    0.018860	    0.029470	    0.048330	   -0.010970	    0.008970	   -0.002000
     9.225	0	0	    0	    0.032462	   -0.011163	    0.021299	    0.018409	    0.003542	    0.021951	    0.027535	    0.008123	    0.035658	    0.036568	    0.008906	    0.045475	    0.046860	    0.025533	    0.072393	    0.010002	    0.000307	    0.010309	    0.003702	    0.017656	    0.021358	   -0.005019	   -0.036958	   -0.041977	    0.050967	    0.021389	    0.072356	    0.026169	    0.013075	    0.039244	    0.040758	    0.014495	    0.055253	    0.027605	    0.008694	    0.036299	    0.029954	    0.029246	    0.059200	    0.005316	    0.005224	    0.010540	    0.010628	    0.015270	    0.025898	    0.002184	   -0.034610	   -0.032426	    0.044877	    0.019608	    0.064485	    0.026420	    0.003389	    0.029809	    0.035537	    0.002806	    0.038343	    0.025340	    0.014659	    0.039999	    0.020679	    0.028115	    0.048794	    0.001456	    0.003999	    0.005456
     9.300	0	0	    0	    0.026491	   -0.008629	    0.017861	    0.026966	    0.001724	    0.028689	    0.037595	    0.004833	    0.042428	    0.039548	    0.008368	    0.047916	    0.053614	    0.024559	    0.078173	    0.016589	    0.001889	    0.018478	    0.001612	    0.019197	    0.020809	   -0.002017	   -0.032672	   -0.034689	    0.074470	    0.018625	    0.093096	    0.034165	    0.013839	    0.048004	    0.044395	    0.015715	    0.060111	    0.032356	    0.007347	    0.039703	    0.040900	    0.026435	    0.067335	    0.006154	    0.008110	    0.014264	    0.010809	    0.017385	    0.028194	    0.022563	   -0.029291	   -0.006728	    0.061948	    0.021917	    0.083865	    0.030635	    0.004793	    0.035428	    0.040591	    0.004020	    0.044611	    0.035395	    0.014467	    0.049862	    0.028146	    0.030029	    0.058175	   -0.001779	    0.007077	    0.005298
     9.375	0	0	    0	    0.029379	    0.001003	    0.030382	    0.029481	    0.003664	    0.033145	    0.040943	    0.003358	    0.044300	    0.041129	    0.011941	    0.053070	    0.052192	    0.027096	    0.079288	    0.017242	    0.000025	    0.017267	   -0.005639	    0.029447	    0.023807	    0.000314	   -0.034080	   -0.033765	    0.074341	    0.028010	    0.102352	    0.035954	    0.015258	    0.051212	    0.045784	    0.016237	    0.062021	    0.034862	    0.009218	    0.044081	    0.043194	    0.029096	    0.072289	    0.012774	    0.003169	    0.015943	    0.002848	    0.025148	    0.027996	    0.023302	   -0.024664	   -0.001362	    0.064108	    0.026693	    0.090801	    0.032846	    0.004559	    0.037404	    0.042674	    0.004709	    0.047383	    0.037018	    0.017886	    0.054904	    0.029203	    0.031980	    0.061182	    0.005020	    0.004347	    0.009368
     9.450	0	0	    0	    0.030843	   -0.003949	    0.026894	    0.032563	    0.002049	    0.034612	    0.042908	    0.008260	    0.051168	    0.044308	    0.011328	    0.055636	    0.059663	    0.023595	    0.083258	    0.020844	    0.004320	    0.025164	    0.029742	    0.000057	    0.029799	    0.001026	   -0.034532	   -0.033507	    0.076690	    0.027473	    0.104163	    0.037052	    0.015677	    0.052729	    0.047110	    0.016030	    0.063139	    0.036853	    0.009562	    0.046415	    0.045840	    0.028727	    0.074567	    0.011274	    0.009678	    0.020952	    0.008649	    0.018118	    0.026767	    0.025378	   -0.025153	    0.000225	    0.066985	    0.026416	    0.093401	    0.033462	    0.004749	    0.038211	    0.043499	    0.005148	    0.048648	    0.039707	    0.017436	    0.057143	    0.033519	    0.029952	    0.063472	   -0.001584	    0.001688	    0.000104
     9.525	0	0	    0	    0.047354	   -0.027952	    0.019402	    0.028089	    0.004270	    0.032359	    0.037979	    0.008693	    0.046672	    0.047343	    0.008207	    0.055550	    0.060284	    0.022791	    0.083075	    0.023903	    0.001096	    0.024998	    0.007302	    0.016655	    0.023956	    0.005431	   -0.037897	   -0.032466	    0.078069	    0.023405	    0.101474	    0.037231	    0.014965	    0.052196	    0.046337	    0.016277	    0.062615	    0.037051	    0.009730	    0.046781	    0.049212	    0.026513	    0.075726	    0.015487	    0.009082	    0.024569	    0.001760	    0.013900	    0.015660	    0.023273	   -0.026227	   -0.002954	    0.065569	    0.026057	    0.091625	    0.032967	    0.005032	    0.037999	    0.043122	    0.004671	    0.047793	    0.039349	    0.017027	    0.056376	    0.037365	    0.033309	    0.070674	   -0.003333	    0.004152	    0.000819
     9.600	0	0	    0	    0.037807	   -0.007570	    0.030237	    0.029431	    0.004268	    0.033699	    0.039022	    0.005402	    0.044424	    0.043531	    0.011033	    0.054564	    0.062850	    0.022068	    0.084918	    0.022224	    0.004274	    0.026498	    0.001543	    0.015257	    0.016800	    0.004990	   -0.037783	   -0.032793	    0.075222	    0.027249	    0.102471	    0.036606	    0.015939	    0.052546	    0.046450	    0.016472	    0.062922	    0.037149	    0.009560	    0.046708	    0.046316	    0.031023	    0.077340	    0.014318	    0.011519	    0.025837	   -0.005262	    0.012703	    0.007441	    0.023577	   -0.026865	   -0.003288	    0.066279	    0.025914	    0.092193	    0.033850	    0.004797	    0.038647	    0.043368	    0.004606	    0.047974	    0.039441	    0.016671	    0.056111	    0.036898	    0.035724	    0.072622	    0.000269	   -0.000457	   -0.000188
     9.675	0	0	    0	    0.025390	   -0.001134	    0.024256	    0.026896	    0.006121	    0.033017	    0.033700	    0.010693	    0.044393	    0.044490	    0.010970	    0.055460	    0.063608	    0.024586	    0.088194	    0.019977	    0.008206	    0.028183	   -0.001183	    0.022910	    0.021728	    0.001999	   -0.033995	   -0.031996	    0.073030	    0.027684	    0.100714	    0.035716	    0.016804	    0.052520	    0.047123	    0.016229	    0.063353	    0.037623	    0.009159	    0.046782	    0.047768	    0.031194	    0.078962	    0.013498	    0.010611	    0.024109	   -0.008141	    0.014825	    0.006685	    0.021272	   -0.026151	   -0.004879	    0.065134	    0.026009	    0.091143	    0.034326	    0.004771	    0.039098	    0.042890	    0.004805	    0.047695	    0.039327	    0.016433	    0.055760	    0.039166	    0.035494	    0.074660	   -0.003286	   -0.001819	   -0.005105
     9.750	0	0	    0	    0.040880	   -0.018737	    0.022144	    0.026807	    0.005288	    0.032095	    0.037432	    0.009360	    0.046792	    0.046486	    0.009709	    0.056196	    0.066554	    0.023425	    0.089979	    0.028824	    0.002775	    0.031598	    0.019392	    0.005477	    0.024869	    0.008517	   -0.040689	   -0.032173	    0.069485	    0.027666	    0.097150	    0.035387	    0.015950	    0.051337	    0.046363	    0.016478	    0.062840	    0.037313	    0.009240	    0.046553	    0.046170	    0.034974	    0.081144	    0.022517	    0.007438	    0.029955	   -0.012770	    0.004477	   -0.008293	    0.017346	   -0.026317	   -0.008971	    0.063118	    0.025939	    0.089057	    0.033521	    0.005040	    0.038561	    0.042062	    0.004481	    0.046542	    0.038506	    0.017429	    0.055935	    0.042407	    0.040482	    0.082888	   -0.006741	   -0.002160	   -0.008900
     9.825	0	0	    0	    0.046226	   -0.019252	    0.026974	    0.027308	    0.003183	    0.030491	    0.038529	    0.004014	    0.042543	    0.045666	    0.009041	    0.054707	    0.067347	    0.027131	    0.094478	    0.018999	    0.011652	    0.030652	    0.007506	    0.017290	    0.024796	    0.007669	   -0.043160	   -0.035490	    0.068401	    0.025409	    0.093810	    0.034170	    0.016387	    0.050557	    0.044599	    0.017067	    0.061666	    0.036430	    0.009009	    0.045439	    0.047113	    0.036040	    0.083152	    0.018523	    0.013758	    0.032281	   -0.009324	   -0.008857	   -0.018182	    0.015797	   -0.028412	   -0.012614	    0.061521	    0.025394	    0.086915	    0.033373	    0.004984	    0.038357	    0.040852	    0.004676	    0.045527	    0.037564	    0.018339	    0.055903	    0.044814	    0.043697	    0.088511	   -0.008856	   -0.006442	   -0.015298
     9.900	0	0	    0	    0.018529	    0.000384	    0.018912	    0.021442	    0.002688	    0.024130	    0.028838	    0.011763	    0.040600	    0.042992	    0.011439	    0.054432	    0.060155	    0.031100	    0.091255	    0.022319	    0.004744	    0.027063	    0.000372	    0.004537	    0.004910	   -0.001295	   -0.036216	   -0.037511	    0.064610	    0.023776	    0.088386	    0.032987	    0.014642	    0.047629	    0.042404	    0.015841	    0.058246	    0.035685	    0.009655	    0.045340	    0.050564	    0.031689	    0.082253	    0.017743	    0.010005	    0.027749	   -0.024300	   -0.008086	   -0.032386	    0.013516	   -0.029428	   -0.015913	    0.059991	    0.024437	    0.084429	    0.031924	    0.005650	    0.037573	    0.039615	    0.004674	    0.044289	    0.037754	    0.017870	    0.055624	    0.044877	    0.041482	    0.086359	   -0.016103	   -0.006241	   -0.022344
